!FILE=Disk
!KIND=Spectrum
!LABORATORY=Oslo Cyclotron Laboratory (OCL)
!EXPERIMENT=mama
!COMMENT=Range curve for alp on silicon                              
!TIME=DATE:Tue May 25 11:18:14 2004
!CALIBRATION EkeV=3, 0.000000E+00, 0.400000E+02, 0.000000E+00
!PRECISION=16
!DIMENSION=1,0:2047
!CHANNEL=(0:2047)
    0.115789   0.232751   0.350888   0.470198   0.590682   0.712338   0.835168
    0.959171    1.08435    1.21070    1.33822    1.46691    1.59678    1.72781
     1.86003    1.99341    2.12796    2.26369    2.40059    2.53866    2.67789
     2.81831    2.95989    3.10264    3.24656    3.39166    3.53792    3.68536
     3.83396    3.98373    4.13469    4.28680    4.44008    4.59453    4.75015
     4.90695    5.06491    5.22404    5.38434    5.54580    5.70844    5.87224
     6.03720    6.20335    6.37066    6.53913    6.70878    6.87959    7.05156
     7.22471    7.39902    7.57450    7.75115    7.92896    8.10794    8.28808
     8.46940    8.65187    8.83551    9.02032    9.20630    9.39344    9.58174
     9.77121    9.96185   10.15365   10.34662   10.54076    10.7360    10.9325
     11.1301    11.3289    11.5289    11.7300    11.9323    12.1357    12.3403
     12.5461    12.7530    12.9611    13.1704    13.3808    13.5924    13.8051
     14.0190    14.2341    14.4503    14.6677    14.8863    15.1060    15.3269
     15.5489    15.7721    15.9965    16.2220    16.4487    16.6766    16.9056
     17.1358    17.3671    17.5996    17.8332    18.0680    18.3040    18.5411
     18.7794    19.0189    19.2595    19.5013    19.7442    19.9883    20.2335
     20.4799    20.7275    20.9762    21.2261    21.4771    21.7293    21.9826
     22.2371    22.4928    22.7496    23.0076    23.2668    23.5270    23.7885
     24.0511    24.3149    24.5798    24.8459    25.1131    25.3815    25.6510
     25.9218    26.1936    26.4666    26.7408    27.0161    27.2926    27.5702
     27.8490    28.1290    28.4100    28.6923    28.9757    29.2603    29.5460
     29.8329    30.1209    30.4101    30.7004    30.9919    31.2845    31.5783
     31.8733    32.1694    32.4666    32.7650    33.0646    33.3653    33.6671
     33.9702    34.2743    34.5796    34.8861    35.1937    35.5025    35.8124
     36.1235    36.4357    36.7491    37.0636    37.3793    37.6961    38.0141
     38.3332    38.6535    38.9750    39.2975    39.6212    39.9462    40.2722
     40.5993    40.9277    41.2571    41.5878    41.9196    42.2525    42.5865
     42.9218    43.2581    43.5956    43.9343    44.2741    44.6151    44.9572
     45.3004    45.6449    45.9904    46.3371    46.6850    47.0340    47.3841
     47.7354    48.0878    48.4414    48.7961    49.1520    49.5090    49.8672
     50.2265    50.5869    50.9485    51.3113    51.6752    52.0402    52.4064
     52.7737    53.1422    53.5118    53.8826    54.2545    54.6276    55.0017
     55.3770    55.7535    56.1312    56.5099    56.8899    57.2709    57.6531
     58.0365    58.4210    58.8066    59.1934    59.5813    59.9703    60.3606
     60.7519    61.1444    61.5380    61.9328    62.3287    62.7257    63.1239
     63.5233    63.9237    64.3254    64.7281    65.1320    65.5371    65.9432
     66.3506    66.7591    67.1686    67.5794    67.9913    68.4043    68.8185
     69.2338    69.6502    70.0678    70.4865    70.9064    71.3274    71.7495
     72.1728    72.5972    73.0228    73.4495    73.8773    74.3063    74.7364
     75.1676    75.6000    76.0335    76.4682    76.9040    77.3409    77.7790
     78.2182    78.6586    79.1000    79.5426    79.9864    80.4313    80.8773
     81.3245    81.7728    82.2222    82.6728    83.1245    83.5774    84.0314
     84.4865    84.9427    85.4001    85.8586    86.3183    86.7791    87.2410
     87.7041    88.1683    88.6336    89.1001    89.5677    90.0364    90.5062
     90.9773    91.4494    91.9226    92.3971    92.8726    93.3493    93.8271
     94.3060    94.7861    95.2673    95.7496    96.2331    96.7177    97.2034
     97.6902    98.1782    98.6674    99.1576    99.6490   100.1415   100.6352
    101.1300   101.6259   102.1229   102.6211   103.1204   103.6208   104.1224
    104.6251   105.1289    105.634    106.140    106.647    107.155    107.665
     108.176    108.687    109.200    109.714    110.229    110.746    111.263
     111.781    112.301    112.822    113.344    113.867    114.391    114.916
     115.443    115.970    116.499    117.029    117.560    118.092    118.625
     119.159    119.694    120.231    120.769    121.308    121.847    122.389
     122.931    123.474    124.018    124.564    125.111    125.659    126.207
     126.758    127.309    127.861    128.415    128.969    129.525    130.082
     130.640    131.199    131.759    132.320    132.883    133.446    134.011
     134.577    135.143    135.712    136.281    136.851    137.423    137.995
     138.569    139.144    139.719    140.297    140.875    141.454    142.034
     142.616    143.199    143.782    144.367    144.953    145.540    146.129
     146.718    147.309    147.900    148.493    149.087    149.682    150.278
     150.875    151.473    152.073    152.674    153.275    153.878    154.482
     155.087    155.693    156.301    156.909    157.519    158.129    158.741
     159.354    159.968    160.583    161.199    161.817    162.435    163.055
     163.676    164.298    164.920    165.545    166.170    166.796    167.424
     168.052    168.682    169.313    169.945    170.578    171.212    171.847
     172.483    173.121    173.759    174.399    175.040    175.682    176.325
     176.969    177.615    178.261    178.909    179.557    180.207    180.858
     181.510    182.163    182.817    183.473    184.129    184.787    185.445
     186.105    186.766    187.428    188.091    188.756    189.421    190.087
     190.755    191.424    192.094    192.765    193.437    194.110    194.784
     195.459    196.136    196.814    197.492    198.172    198.853    199.535
     200.218    200.903    201.588    202.275    202.962    203.651    204.341
     205.032    205.724    206.417    207.111    207.807    208.503    209.201
     209.900    210.599    211.300    212.003    212.706    213.410    214.115
     214.822    215.530    216.238    216.948    217.659    218.371    219.084
     219.799    220.514    221.230    221.948    222.667    223.387    224.108
     224.830    225.553    226.277    227.002    227.729    228.456    229.185
     229.915    230.646    231.378    232.111    232.845    233.580    234.317
     235.054    235.793    236.533    237.274    238.016    238.759    239.503
     240.248    240.995    241.742    242.491    243.240    243.991    244.743
     245.496    246.250    247.005    247.762    248.519    249.278    250.037
     250.798    251.560    252.323    253.087    253.852    254.619    255.386
     256.154    256.924    257.695    258.466    259.239    260.013    260.789
     261.565    262.342    263.120    263.900    264.681    265.462    266.245
     267.029    267.814    268.600    269.387    270.176    270.965    271.756
     272.547    273.340    274.134    274.929    275.725    276.522    277.320
     278.120    278.920    279.722    280.525    281.328    282.133    282.939
     283.746    284.554    285.364    286.174    286.985    287.798    288.612
     289.426    290.242    291.059    291.877    292.696    293.516    294.338
     295.160    295.984    296.808    297.634    298.461    299.289    300.118
     300.948    301.779    302.612    303.445    304.280    305.115    305.952
     306.790    307.629    308.469    309.310    310.152    310.995    311.840
     312.685    313.532    314.380    315.228    316.078    316.929    317.781
     318.634    319.489    320.344    321.200    322.058    322.917    323.776
     324.637    325.499    326.362    327.226    328.092    328.958    329.825
     330.694    331.563    332.434    333.306    334.179    335.053    335.928
     336.804    337.681    338.559    339.439    340.319    341.201    342.084
     342.968    343.852    344.738    345.625    346.514    347.403    348.293
     349.185    350.077    350.971    351.866    352.762    353.658    354.557
     355.456    356.356    357.257    358.159    359.063    359.967    360.873
     361.780    362.688    363.597    364.507    365.418    366.330    367.243
     368.158    369.073    369.990    370.907    371.826    372.746    373.667
     374.589    375.512    376.436    377.361    378.288    379.215    380.144
     381.073    382.004    382.936    383.869    384.803    385.738    386.674
     387.611    388.549    389.489    390.429    391.371    392.314    393.257
     394.202    395.148    396.095    397.043    397.993    398.943    399.894
     400.847    401.800    402.755    403.711    404.668    405.625    406.584
     407.544    408.506    409.468    410.431    411.396    412.361    413.328
     414.295    415.264    416.234    417.205    418.177    419.150    420.124
     421.100    422.076    423.053    424.032    425.011    425.992    426.974
     427.957    428.941    429.926    430.912    431.899    432.887    433.877
     434.867    435.859    436.851    437.845    438.840    439.836    440.833
     441.831    442.830    443.830    444.831    445.834    446.837    447.842
     448.847    449.854    450.862    451.870    452.880    453.891    454.904
     455.917    456.931    457.946    458.963    459.980    460.999    462.018
     463.039    464.061    465.084    466.108    467.133    468.159    469.186
     470.215    471.244    472.275    473.306    474.339    475.372    476.407
     477.443    478.480    479.518    480.557    481.597    482.639    483.681
     484.724    485.769    486.815    487.861    488.909    489.958    491.008
     492.059    493.111    494.164    495.218    496.273    497.330    498.387
     499.446    500.505    501.566    502.628    503.690    504.754    505.819
     506.885    507.953    509.021    510.090    511.160    512.232    513.304
     514.378    515.453    516.528    517.605    518.683    519.762    520.842
     521.923    523.005    524.089    525.173    526.259    527.345    528.432
     529.521    530.611    531.702    532.794    533.886    534.981    536.076
     537.172    538.269    539.367    540.467    541.567    542.669    543.772
     544.875    545.980    547.086    548.193    549.301    550.410    551.520
     552.631    553.743    554.857    555.971    557.087    558.203    559.321
     560.439    561.559    562.680    563.802    564.925    566.049    567.174
     568.301    569.428    570.556    571.686    572.816    573.948    575.080
     576.214    577.349    578.485    579.622    580.760    581.899    583.039
     584.180    585.322    586.466    587.610    588.756    589.902    591.050
     592.199    593.348    594.499    595.651    596.804    597.958    599.113
     600.270    601.427    602.585    603.745    604.905    606.067    607.229
     608.393    609.558    610.723    611.890    613.058    614.227    615.397
     616.568    617.741    618.914    620.088    621.264    622.440    623.618
     624.797    625.976    627.157    628.339    629.522    630.706    631.891
     633.077    634.264    635.452    636.642    637.832    639.023    640.216
     641.410    642.604    643.800    644.997    646.194    647.393    648.593
     649.794    650.996    652.199    653.404    654.609    655.815    657.023
     658.231    659.441    660.651    661.863    663.076    664.290    665.504
     666.720    667.937    669.156    670.375    671.595    672.816    674.038
     675.262    676.486    677.712    678.938    680.166    681.395    682.625
     683.855    685.087    686.320    687.554    688.789    690.025    691.263
     692.501    693.740    694.981    696.222    697.465    698.708    699.953
     701.199    702.445    703.693    704.942    706.192    707.443    708.695
     709.948    711.203    712.458    713.714    714.972    716.230    717.490
     718.750    720.012    721.274    722.538    723.803    725.069    726.336
     727.604    728.873    730.143    731.414    732.686    733.960    735.234
     736.509    737.786    739.063    740.342    741.622    742.902    744.184
     745.467    746.751    748.036    749.322    750.609    751.897    753.186
     754.476    755.768    757.060    758.354    759.648    760.943    762.240
     763.538    764.837    766.136    767.437    768.739    770.042    771.346
     772.651    773.957    775.264    776.572    777.882    779.192    780.503
     781.816    783.129    784.444    785.760    787.076    788.394    789.713
     791.033    792.354    793.675    794.999    796.323    797.648    798.974
     800.301    801.629    802.959    804.289    805.621    806.953    808.287
     809.621    810.957    812.294    813.632    814.970    816.310    817.651
     818.993    820.336    821.680    823.026    824.372    825.719    827.068
     828.417    829.767    831.119    832.471    833.825    835.179    836.535
     837.892    839.250    840.609    841.969    843.330    844.692    846.055
     847.419    848.784    850.150    851.518    852.886    854.255    855.626
     856.997    858.370    859.744    861.118    862.494    863.871    865.249
     866.627    868.007    869.388    870.770    872.153    873.538    874.923
     876.309    877.696    879.084    880.474    881.864    883.256    884.648
     886.042    887.437    888.832    890.229    891.627    893.026    894.425
     895.826    897.228    898.632    900.036    901.441    902.847    904.254
     905.662    907.072    908.482    909.893    911.306    912.720    914.134
     915.550    916.967    918.384    919.803    921.223    922.644    924.066
     925.488    926.912    928.338    929.764    931.191    932.619    934.048
     935.479    936.910    938.342    939.776    941.210    942.646    944.083
     945.520    946.959    948.399    949.839    951.281    952.724    954.168
     955.613    957.059    958.506    959.954    961.403    962.853    964.305
     965.757    967.210    968.665    970.120    971.576    973.034    974.493
     975.952    977.413    978.875    980.337    981.801    983.266    984.732
     986.199    987.667    989.136    990.606    992.077    993.549    995.022
     996.497    997.972    999.448   1000.926   1002.404   1003.884   1005.364
     1006.85    1008.33    1009.81    1011.30    1012.78    1014.27    1015.76
     1017.25    1018.74    1020.23    1021.72    1023.21    1024.71    1026.20
     1027.70    1029.19    1030.69    1032.19    1033.69    1035.19    1036.70
     1038.20    1039.70    1041.21    1042.72    1044.22    1045.73    1047.24
     1048.75    1050.26    1051.78    1053.29    1054.81    1056.32    1057.84
     1059.36    1060.88    1062.40    1063.92    1065.44    1066.96    1068.49
     1070.01    1071.54    1073.07    1074.59    1076.12    1077.65    1079.19
     1080.72    1082.25    1083.79    1085.32    1086.86    1088.40    1089.94
     1091.48    1093.02    1094.56    1096.10    1097.65    1099.19    1100.74
     1102.29    1103.83    1105.38    1106.93    1108.48    1110.04    1111.59
     1113.14    1114.70    1116.26    1117.81    1119.37    1120.93    1122.49
     1124.05    1125.62    1127.18    1128.75    1130.31    1131.88    1133.45
     1135.02    1136.59    1138.16    1139.73    1141.30    1142.88    1144.45
     1146.03    1147.60    1149.18    1150.76    1152.34    1153.92    1155.51
     1157.09    1158.67    1160.26    1161.85    1163.43    1165.02    1166.61
     1168.20    1169.80    1171.39    1172.98    1174.58    1176.17    1177.77
     1179.37    1180.97    1182.57    1184.17    1185.77    1187.37    1188.98
     1190.58    1192.19    1193.80    1195.41    1197.02    1198.63    1200.24
     1201.85    1203.46    1205.08    1206.69    1208.31    1209.93    1211.55
     1213.17    1214.79    1216.41    1218.03    1219.66    1221.28    1222.91
     1224.53    1226.16    1227.79    1229.42    1231.05    1232.68    1234.32
     1235.95    1237.59    1239.22    1240.86    1242.50    1244.14    1245.78
     1247.42    1249.06    1250.71    1252.35    1254.00    1255.64    1257.29
     1258.94    1260.59    1262.24    1263.89    1265.54    1267.20    1268.85
     1270.51    1272.16    1273.82    1275.48    1277.14    1278.80    1280.46
     1282.13    1283.79    1285.46    1287.12    1288.79    1290.46    1292.13
     1293.80    1295.47    1297.14    1298.82    1300.49    1302.17    1303.84
     1305.52    1307.20    1308.88    1310.56    1312.24    1313.92    1315.61
     1317.29    1318.98    1320.66    1322.35    1324.04    1325.73    1327.42
     1329.11    1330.81    1332.50    1334.20    1335.89    1337.59    1339.29
     1340.99    1342.69    1344.39    1346.09    1347.79    1349.50    1351.20
     1352.91    1354.62    1356.33    1358.03    1359.75    1361.46    1363.17
     1364.88    1366.60    1368.31    1370.03    1371.75    1373.47    1375.19
     1376.91    1378.63    1380.35    1382.08    1383.80    1385.53    1387.25
     1388.98    1390.71    1392.44    1394.17    1395.90    1397.64    1399.37
     1401.10    1402.84    1404.58    1406.32    1408.06    1409.80    1411.54
     1413.28    1415.02    1416.77    1418.51    1420.26    1422.01    1423.76
     1425.50    1427.25    1429.01    1430.76    1432.51    1434.27    1436.02
     1437.78    1439.54    1441.30    1443.06    1444.82    1446.58    1448.34
     1450.11    1451.87    1453.64    1455.40    1457.17    1458.94    1460.71
     1462.48    1464.25    1466.03    1467.80    1469.57    1471.35    1473.13
     1474.91    1476.69    1478.47    1480.25    1482.03    1483.81    1485.60
     1487.38    1489.17    1490.96    1492.74    1494.53    1496.32    1498.12
     1499.91    1501.70    1503.50    1505.29    1507.09    1508.89    1510.68
     1512.48    1514.28    1516.09    1517.89    1519.69    1521.50    1523.30
     1525.11    1526.92    1528.73    1530.54    1532.35    1534.16    1535.97
     1537.79    1539.60    1541.42    1543.23    1545.05    1546.87    1548.69
     1550.51    1552.34    1554.16    1555.98    1557.81    1559.63    1561.46
     1563.29    1565.12    1566.95    1568.78    1570.61    1572.45    1574.28
     1576.12    1577.95    1579.79    1581.63    1583.47    1585.31    1587.15
     1588.99    1590.84    1592.68    1594.53    1596.37    1598.22    1600.07
     1601.92    1603.77    1605.62    1607.47    1609.33    1611.18    1613.04
     1614.89    1616.75    1618.61    1620.47    1622.33    1624.19    1626.06
     1627.92    1629.79    1631.65    1633.52    1635.39    1637.26    1639.13
     1641.00    1642.87    1644.74    1646.62    1648.49    1650.37    1652.24
     1654.12    1656.00    1657.88    1659.76    1661.65    1663.53    1665.41
     1667.30    1669.18    1671.07    1672.96    1674.85    1676.74    1678.63
     1680.52    1682.42    1684.31    1686.21    1688.10    1690.00    1691.90
     1693.80    1695.70    1697.60    1699.50    1701.41    1703.31    1705.22
     1707.12    1709.03    1710.94    1712.85    1714.76    1716.67    1718.58
     1720.50    1722.41    1724.33    1726.25    1728.16    1730.08    1732.00
     1733.92    1735.84    1737.77    1739.69    1741.62    1743.54    1745.47
     1747.40    1749.33    1751.26    1753.19    1755.12    1757.05    1758.99
     1760.92    1762.86    1764.79    1766.73    1768.67    1770.61    1772.55
     1774.49    1776.44    1778.38    1780.33    1782.27    1784.22    1786.17
     1788.12    1790.07    1792.02    1793.97    1795.92    1797.88    1799.83
     1801.79    1803.75    1805.71    1807.67    1809.63    1811.59    1813.55
     1815.51    1817.48    1819.44    1821.41    1823.38    1825.34    1827.31
     1829.28    1831.26    1833.23    1835.20    1837.18    1839.15    1841.13
     1843.11    1845.08    1847.06    1849.04    1851.03    1853.01    1854.99
     1856.98    1858.96    1860.95    1862.94    1864.93    1866.92    1868.91
     1870.90    1872.89    1874.88    1876.88    1878.87    1880.87    1882.87
     1884.87    1886.87    1888.87    1890.87    1892.87    1894.88    1896.88
     1898.89    1900.89    1902.90    1904.91    1906.92    1908.93    1910.94
     1912.96    1914.97    1916.98    1919.00    1921.02    1923.04    1925.05
     1927.07    1929.10    1931.12    1933.14    1935.16    1937.19    1939.22
     1941.24    1943.27    1945.30    1947.33    1949.36    1951.39    1953.43
     1955.46    1957.49    1959.53    1961.57    1963.61    1965.64    1967.69
     1969.73    1971.77    1973.81    1975.86    1977.90    1979.95    1981.99
     1984.04    1986.09    1988.14    1990.19    1992.24    1994.30    1996.35
     1998.41    2000.46    2002.52    2004.58    2006.64    2008.70    2010.76
     2012.82    2014.89    2016.95    2019.01    2021.08    2023.15    2025.22
     2027.29    2029.36    2031.43    2033.50    2035.57    2037.65    2039.72
     2041.80    2043.88    2045.95    2048.03    2050.11    2052.20    2054.28
     2056.36    2058.45    2060.53    2062.62    2064.70    2066.79    2068.88
     2070.97    2073.06    2075.16    2077.25    2079.34    2081.44    2083.54
     2085.63    2087.73    2089.83    2091.93    2094.03    2096.14    2098.24
     2100.34    2102.45    2104.55    2106.66    2108.77    2110.88    2112.99
     2115.10    2117.21    2119.33    2121.44    2123.56    2125.67    2127.79
     2129.91    2132.03    2134.15    2136.27    2138.39    2140.52    2142.64
     2144.77    2146.89    2149.02    2151.15    2153.28    2155.41    2157.54
     2159.67    2161.81    2163.94    2166.08    2168.21    2170.35    2172.49
     2174.63    2176.77    2178.91    2181.05    2183.20    2185.34    2187.49
     2189.63    2191.78    2193.93    2196.08    2198.23    2200.38    2202.54
     2204.69    2206.84    2209.00    2211.16    2213.31    2215.47    2217.63
     2219.79    2221.95    2224.12    2226.28    2228.44    2230.61    2232.78
     2234.94    2237.11    2239.28    2241.45    2243.62    2245.80    2247.97
     2250.14    2252.32    2254.50    2256.67    2258.85    2261.03    2263.21
     2265.39    2267.58    2269.76    2271.94    2274.13    2276.32    2278.50
     2280.69    2282.88    2285.07    2287.26    2289.46    2291.65    2293.84
     2296.04    2298.24    2300.43    2302.63    2304.83    2307.03    2309.23
     2311.44    2313.64    2315.84    2318.05    2320.26    2322.46    2324.67
     2326.88    2329.09    2331.30    2333.52    2335.73    2337.94    2340.16
     2342.38    2344.59    2346.81    2349.03    2351.25    2353.47    2355.70
     2357.92    2360.14    2362.37    2364.60    2366.82    2369.05    2371.28
     2373.51    2375.74    2377.97    2380.21    2382.44    2384.68    2386.91
     2389.15    2391.39    2393.63    2395.87    2398.11    2400.35    2402.60
     2404.84    2407.09    2409.33    2411.58    2413.83    2416.08    2418.33
     2420.58    2422.83    2425.08    2427.34    2429.59    2431.85    2434.11
     2436.37    2438.63    2440.89    2443.15    2445.41    2447.67    2449.94
     2452.20    2454.47    2456.74    2459.00    2461.27    2463.54    2465.81
     2468.09    2470.36    2472.63    2474.91    2477.19    2479.46    2481.74
     2484.02    2486.30    2488.58    2490.86    2493.15    2495.43    2497.72
     2500.00    2502.29    2504.58    2506.87    2509.16    2511.45    2513.74
     2516.03    2518.33    2520.62    2522.92    2525.21    2527.51    2529.81
     2532.11    2534.41    2536.71    2539.02
!IDEND=

