!FILE=Disk
!KIND=Spectrum
!LABORATORY=Oslo Cyclotron Laboratory (OCL)
!EXPERIMENT=mama
!COMMENT=Range curve for alp on silicon                              
!TIME=DATE:Wed Jun 25 14:14:13 2003
!CALIBRATION EkeV=3, 0.000000E+00, 0.400000E+02, 0.000000E+00
!PRECISION=16
!DIMENSION=1,0:2047
!CHANNEL=(0:2047)
    0.167624   0.336332   0.506126   0.677004   0.848967    1.02202    1.19615
     1.37136    1.54766    1.72505    1.90351    2.08306    2.26370    2.44542
     2.62822    2.81211    2.99707    3.18312    3.37025    3.55847    3.74777
     3.93814    4.12961    4.32215    4.51578    4.71049    4.90627    5.10315
     5.30109    5.50013    5.70024    5.90143    6.10371    6.30706    6.51150
     6.71701    6.92361    7.13129    7.34005    7.54988    7.76079    7.97279
     8.18586    8.40001    8.61525    8.83155    9.04894    9.26741    9.48697
     9.70759    9.92928   10.15207   10.37593    10.6009    10.8269    11.0540
     11.2821    11.5114    11.7417    11.9731    12.2056    12.4391    12.6738
     12.9095    13.1462    13.3841    13.6230    13.8631    14.1041    14.3463
     14.5895    14.8338    15.0792    15.3257    15.5732    15.8218    16.0715
     16.3223    16.5741    16.8270    17.0810    17.3361    17.5922    17.8494
     18.1077    18.3670    18.6275    18.8890    19.1515    19.4152    19.6799
     19.9457    20.2125    20.4805    20.7495    21.0196    21.2907    21.5629
     21.8362    22.1106    22.3860    22.6625    22.9401    23.2188    23.4985
     23.7793    24.0611    24.3440    24.6280    24.9131    25.1992    25.4865
     25.7747    26.0641    26.3545    26.6460    26.9385    27.2322    27.5269
     27.8226    28.1195    28.4174    28.7163    29.0164    29.3175    29.6197
     29.9229    30.2272    30.5326    30.8390    31.1465    31.4551    31.7648
     32.0755    32.3873    32.7001    33.0140    33.3290    33.6450    33.9621
     34.2803    34.5995    34.9199    35.2412    35.5637    35.8871    36.2117
     36.5374    36.8641    37.1918    37.5207    37.8505    38.1815    38.5135
     38.8466    39.1808    39.5160    39.8522    40.1896    40.5280    40.8675
     41.2080    41.5496    41.8922    42.2360    42.5807    42.9266    43.2735
     43.6215    43.9705    44.3206    44.6717    45.0240    45.3772    45.7316
     46.0870    46.4435    46.8009    47.1596    47.5192    47.8799    48.2417
     48.6045    48.9684    49.3333    49.6993    50.0664    50.4345    50.8037
     51.1739    51.5453    51.9176    52.2911    52.6656    53.0411    53.4177
     53.7953    54.1741    54.5538    54.9347    55.3166    55.6995    56.0835
     56.4686    56.8547    57.2419    57.6301    58.0194    58.4098    58.8012
     59.1937    59.5872    59.9818    60.3774    60.7741    61.1718    61.5706
     61.9705    62.3714    62.7734    63.1764    63.5805    63.9856    64.3918
     64.7991    65.2074    65.6168    66.0272    66.4386    66.8511    67.2647
     67.6794    68.0950    68.5117    68.9296    69.3484    69.7683    70.1892
     70.6113    71.0343    71.4585    71.8836    72.3098    72.7371    73.1654
     73.5948    74.0252    74.4567    74.8893    75.3228    75.7575    76.1931
     76.6299    77.0677    77.5066    77.9464    78.3873    78.8293    79.2724
     79.7165    80.1616    80.6078    81.0551    81.5034    81.9527    82.4031
     82.8546    83.3071    83.7606    84.2152    84.6709    85.1275    85.5853
     86.0441    86.5039    86.9648    87.4268    87.8898    88.3538    88.8188
     89.2850    89.7522    90.2204    90.6897    91.1600    91.6314    92.1038
     92.5773    93.0518    93.5273    94.0040    94.4816    94.9603    95.4401
     95.9208    96.4027    96.8856    97.3695    97.8545    98.3405    98.8275
     99.3157    99.8048   100.2950   100.7863   101.2786   101.7719   102.2663
    102.7617   103.2582   103.7557   104.2542   104.7539    105.255    105.756
     106.259    106.763    107.268    107.773    108.280    108.788    109.297
     109.807    110.318    110.831    111.344    111.858    112.373    112.889
     113.407    113.925    114.445    114.965    115.487    116.009    116.533
     117.057    117.583    118.110    118.637    119.166    119.696    120.227
     120.759    121.292    121.826    122.361    122.897    123.434    123.972
     124.511    125.052    125.593    126.135    126.679    127.223    127.768
     128.315    128.862    129.411    129.961    130.511    131.063    131.616
     132.169    132.724    133.280    133.837    134.395    134.953    135.513
     136.074    136.637    137.200    137.764    138.329    138.895    139.462
     140.030    140.600    141.170    141.741    142.314    142.887    143.462
     144.037    144.614    145.191    145.770    146.350    146.930    147.512
     148.095    148.679    149.263    149.849    150.436    151.024    151.613
     152.203    152.794    153.386    153.979    154.573    155.168    155.765
     156.362    156.960    157.559    158.160    158.761    159.364    159.967
     160.571    161.177    161.783    162.391    163.000    163.609    164.220
     164.831    165.444    166.058    166.673    167.288    167.905    168.523
     169.142    169.762    170.383    171.005    171.628    172.252    172.877
     173.503    174.130    174.758    175.388    176.018    176.649    177.281
     177.915    178.549    179.184    179.821    180.458    181.097    181.736
     182.377    183.018    183.661    184.304    184.949    185.595    186.241
     186.889    187.538    188.188    188.838    189.490    190.143    190.797
     191.452    192.108    192.765    193.423    194.081    194.742    195.403
     196.065    196.728    197.392    198.057    198.723    199.391    200.059
     200.728    201.398    202.070    202.742    203.415    204.090    204.765
     205.441    206.119    206.797    207.477    208.157    208.839    209.521
     210.205    210.890    211.575    212.262    212.950    213.638    214.328
     215.019    215.711    216.404    217.097    217.792    218.488    219.185
     219.883    220.582    221.282    221.983    222.685    223.388    224.092
     224.797    225.503    226.210    226.918    227.627    228.338    229.049
     229.761    230.474    231.188    231.904    232.620    233.337    234.056
     234.775    235.495    236.217    236.939    237.663    238.387    239.113
     239.839    240.567    241.295    242.025    242.755    243.487    244.219
     244.953    245.688    246.423    247.160    247.898    248.636    249.376
     250.117    250.859    251.601    252.345    253.090    253.836    254.583
     255.330    256.079    256.829    257.580    258.332    259.085    259.839
     260.594    261.350    262.107    262.865    263.624    264.384    265.145
     265.907    266.670    267.434    268.200    268.966    269.733    270.501
     271.270    272.040    272.812    273.584    274.357    275.131    275.907
     276.683    277.460    278.239    279.018    279.798    280.580    281.362
     282.145    282.930    283.715    284.502    285.289    286.077    286.867
     287.657    288.449    289.241    290.035    290.829    291.625    292.421
     293.219    294.018    294.817    295.618    296.419    297.222    298.026
     298.830    299.636    300.443    301.250    302.059    302.868    303.679
     304.491    305.304    306.117    306.932    307.748    308.565    309.382
     310.201    311.021    311.842    312.664    313.486    314.310    315.135
     315.961    316.788    317.615    318.444    319.274    320.105    320.937
     321.770    322.604    323.439    324.274    325.111    325.949    326.788
     327.628    328.469    329.311    330.154    330.998    331.843    332.689
     333.536    334.384    335.233    336.083    336.934    337.786    338.639
     339.493    340.348    341.204    342.061    342.919    343.778    344.639
     345.500    346.362    347.225    348.089    348.954    349.820    350.687
     351.555    352.424    353.294    354.166    355.038    355.911    356.785
     357.660    358.536    359.413    360.292    361.171    362.051    362.932
     363.814    364.697    365.581    366.467    367.353    368.240    369.128
     370.017    370.907    371.799    372.691    373.584    374.478    375.373
     376.270    377.167    378.065    378.964    379.864    380.766    381.668
     382.571    383.475    384.380    385.286    386.194    387.102    388.011
     388.921    389.832    390.745    391.658    392.572    393.487    394.404
     395.321    396.239    397.158    398.078    398.999    399.922    400.845
     401.769    402.694    403.620    404.548    405.476    406.405    407.335
     408.266    409.198    410.132    411.066    412.001    412.937    413.874
     414.813    415.752    416.692    417.633    418.575    419.518    420.462
     421.408    422.354    423.301    424.249    425.198    426.148    427.099
     428.052    429.005    429.959    430.914    431.870    432.827    433.785
     434.744    435.704    436.665    437.627    438.591    439.555    440.520
     441.486    442.453    443.421    444.390    445.360    446.331    447.303
     448.276    449.250    450.225    451.201    452.178    453.156    454.135
     455.115    456.096    457.078    458.061    459.045    460.030    461.016
     462.002    462.990    463.979    464.969    465.960    466.952    467.945
     468.939    469.934    470.929    471.926    472.924    473.923    474.923
     475.923    476.925    477.928    478.932    479.937    480.942    481.949
     482.957    483.966    484.975    485.986    486.998    488.011    489.024
     490.039    491.055    492.071    493.089    494.107    495.127    496.148
     497.169    498.192    499.216    500.240    501.266    502.292    503.320
     504.348    505.378    506.408    507.440    508.472    509.506    510.540
     511.576    512.612    513.649    514.688    515.727    516.768    517.809
     518.852    519.895    520.939    521.985    523.031    524.078    525.126
     526.176    527.226    528.277    529.330    530.383    531.437    532.492
     533.548    534.605    535.664    536.723    537.783    538.844    539.906
     540.969    542.033    543.098    544.164    545.231    546.299    547.368
     548.438    549.509    550.581    551.654    552.728    553.803    554.879
     555.956    557.034    558.112    559.192    560.273    561.355    562.438
     563.521    564.606    565.692    566.778    567.866    568.955    570.045
     571.135    572.227    573.319    574.413    575.507    576.603    577.700
     578.797    579.896    580.995    582.096    583.197    584.300    585.403
     586.507    587.613    588.719    589.826    590.935    592.044    593.154
     594.266    595.378    596.491    597.605    598.720    599.836    600.954
     602.072    603.191    604.311    605.432    606.554    607.677    608.801
     609.926    611.052    612.179    613.307    614.436    615.566    616.697
     617.828    618.961    620.095    621.230    622.366    623.502    624.640
     625.779    626.919    628.059    629.201    630.343    631.487    632.632
     633.777    634.924    636.071    637.220    638.369    639.519    640.671
     641.823    642.977    644.131    645.286    646.443    647.600    648.758
     649.917    651.077    652.239    653.401    654.564    655.728    656.893
     658.059    659.226    660.394    661.563    662.733    663.904    665.076
     666.249    667.423    668.598    669.774    670.950    672.128    673.307
     674.487    675.667    676.849    678.032    679.215    680.400    681.585
     682.772    683.959    685.148    686.337    687.528    688.719    689.912
     691.105    692.299    693.495    694.691    695.888    697.086    698.286
     699.486    700.687    701.889    703.092    704.296    705.501    706.707
     707.914    709.122    710.331    711.541    712.752    713.964    715.177
     716.390    717.605    718.821    720.037    721.255    722.474    723.694
     724.914    726.136    727.358    728.582    729.806    731.032    732.258
     733.485    734.714    735.943    737.174    738.405    739.637    740.870
     742.104    743.339    744.576    745.813    747.051    748.290    749.530
     750.771    752.013    753.256    754.500    755.744    756.990    758.237
     759.485    760.734    761.983    763.234    764.485    765.738    766.992
     768.246    769.502    770.758    772.016    773.274    774.533    775.794
     777.055    778.317    779.581    780.845    782.110    783.376    784.643
     785.911    787.180    788.450    789.721    790.993    792.266    793.540
     794.815    796.091    797.368    798.645    799.924    801.204    802.484
     803.766    805.049    806.332    807.617    808.902    810.188    811.476
     812.765    814.054    815.344    816.635    817.928    819.221    820.515
     821.810    823.106    824.403    825.701    827.000    828.300    829.601
     830.903    832.206    833.510    834.814    836.120    837.427    838.735
     840.043    841.353    842.663    843.975    845.288    846.601    847.915
     849.231    850.547    851.864    853.182    854.502    855.822    857.143
     858.465    859.789    861.113    862.437    863.763    865.090    866.418
     867.747    869.077    870.408    871.740    873.072    874.406    875.740
     877.076    878.413    879.750    881.089    882.428    883.769    885.110
     886.452    887.796    889.140    890.485    891.831    893.178    894.526
     895.875    897.225    898.576    899.928    901.281    902.635    903.990
     905.346    906.702    908.060    909.419    910.778    912.139    913.500
     914.863    916.226    917.591    918.956    920.322    921.690    923.058
     924.427    925.797    927.168    928.540    929.913    931.287    932.662
     934.038    935.415    936.793    938.172    939.552    940.932    942.314
     943.696    945.080    946.465    947.850    949.236    950.624    952.012
     953.402    954.792    956.183    957.575    958.968    960.363    961.757
     963.154    964.551    965.948    967.347    968.747    970.148    971.550
     972.952    974.356    975.761    977.166    978.573    979.980    981.389
     982.798    984.208    985.620    987.032    988.445    989.859    991.274
     992.691    994.108    995.526    996.944    998.365    999.785   1001.207
    1002.630   1004.054   1005.478    1006.90    1008.33    1009.76    1011.19
     1012.62    1014.05    1015.48    1016.91    1018.34    1019.78    1021.21
     1022.65    1024.09    1025.52    1026.96    1028.40    1029.84    1031.29
     1032.73    1034.17    1035.62    1037.06    1038.51    1039.96    1041.41
     1042.85    1044.31    1045.76    1047.21    1048.66    1050.12    1051.57
     1053.03    1054.48    1055.94    1057.40    1058.86    1060.32    1061.78
     1063.25    1064.71    1066.18    1067.64    1069.11    1070.58    1072.04
     1073.51    1074.98    1076.45    1077.93    1079.40    1080.87    1082.35
     1083.83    1085.30    1086.78    1088.26    1089.74    1091.22    1092.70
     1094.18    1095.67    1097.15    1098.64    1100.13    1101.61    1103.10
     1104.59    1106.08    1107.57    1109.06    1110.56    1112.05    1113.55
     1115.04    1116.54    1118.04    1119.54    1121.04    1122.54    1124.04
     1125.54    1127.05    1128.55    1130.06    1131.56    1133.07    1134.58
     1136.09    1137.60    1139.11    1140.62    1142.13    1143.65    1145.16
     1146.68    1148.20    1149.71    1151.23    1152.75    1154.27    1155.79
     1157.32    1158.84    1160.36    1161.89    1163.42    1164.94    1166.47
     1168.00    1169.53    1171.06    1172.59    1174.13    1175.66    1177.20
     1178.73    1180.27    1181.81    1183.34    1184.88    1186.43    1187.97
     1189.51    1191.05    1192.60    1194.14    1195.69    1197.24    1198.78
     1200.33    1201.88    1203.43    1204.99    1206.54    1208.09    1209.65
     1211.20    1212.76    1214.32    1215.87    1217.43    1218.99    1220.56
     1222.12    1223.68    1225.25    1226.81    1228.38    1229.94    1231.51
     1233.08    1234.65    1236.22    1237.79    1239.36    1240.94    1242.51
     1244.09    1245.66    1247.24    1248.82    1250.40    1251.98    1253.56
     1255.14    1256.73    1258.31    1259.89    1261.48    1263.07    1264.66
     1266.24    1267.83    1269.42    1271.02    1272.61    1274.20    1275.80
     1277.39    1278.99    1280.58    1282.18    1283.78    1285.38    1286.98
     1288.58    1290.19    1291.79    1293.39    1295.00    1296.61    1298.21
     1299.82    1301.43    1303.04    1304.65    1306.27    1307.88    1309.49
     1311.11    1312.72    1314.34    1315.96    1317.58    1319.20    1320.82
     1322.44    1324.06    1325.68    1327.31    1328.93    1330.56    1332.19
     1333.82    1335.44    1337.07    1338.71    1340.34    1341.97    1343.60
     1345.24    1346.87    1348.51    1350.15    1351.79    1353.43    1355.07
     1356.71    1358.35    1359.99    1361.64    1363.28    1364.93    1366.58
     1368.22    1369.87    1371.52    1373.17    1374.82    1376.48    1378.13
     1379.78    1381.44    1383.10    1384.75    1386.41    1388.07    1389.73
     1391.39    1393.05    1394.72    1396.38    1398.04    1399.71    1401.38
     1403.04    1404.71    1406.38    1408.05    1409.72    1411.40    1413.07
     1414.74    1416.42    1418.09    1419.77    1421.45    1423.13    1424.81
     1426.49    1428.17    1429.85    1431.53    1433.22    1434.90    1436.59
     1438.28    1439.96    1441.65    1443.34    1445.03    1446.73    1448.42
     1450.11    1451.81    1453.50    1455.20    1456.90    1458.59    1460.29
     1461.99    1463.70    1465.40    1467.10    1468.80    1470.51    1472.22
     1473.92    1475.63    1477.34    1479.05    1480.76    1482.47    1484.18
     1485.89    1487.61    1489.32    1491.04    1492.76    1494.48    1496.19
     1497.91    1499.63    1501.36    1503.08    1504.80    1506.53    1508.25
     1509.98    1511.71    1513.43    1515.16    1516.89    1518.62    1520.36
     1522.09    1523.82    1525.56    1527.29    1529.03    1530.77    1532.50
     1534.24    1535.98    1537.73    1539.47    1541.21    1542.95    1544.70
     1546.45    1548.19    1549.94    1551.69    1553.44    1555.19    1556.94
     1558.69    1560.45    1562.20    1563.95    1565.71    1567.47    1569.23
     1570.98    1572.74    1574.51    1576.27    1578.03    1579.79    1581.56
     1583.32    1585.09    1586.86    1588.62    1590.39    1592.16    1593.93
     1595.71    1597.48    1599.25    1601.03    1602.80    1604.58    1606.36
     1608.14    1609.91    1611.69    1613.48    1615.26    1617.04    1618.82
     1620.61    1622.40    1624.18    1625.97    1627.76    1629.55    1631.34
     1633.13    1634.92    1636.72    1638.51    1640.30    1642.10    1643.90
     1645.69    1647.49    1649.29    1651.09    1652.90    1654.70    1656.50
     1658.31    1660.11    1661.92    1663.72    1665.53    1667.34    1669.15
     1670.96    1672.77    1674.59    1676.40    1678.21    1680.03    1681.85
     1683.66    1685.48    1687.30    1689.12    1690.94    1692.76    1694.59
     1696.41    1698.23    1700.06    1701.89    1703.71    1705.54    1707.37
     1709.20    1711.03    1712.86    1714.70    1716.53    1718.37    1720.20
     1722.04    1723.88    1725.72    1727.55    1729.39    1731.24    1733.08
     1734.92    1736.77    1738.61    1740.46    1742.30    1744.15    1746.00
     1747.85    1749.70    1751.55    1753.40    1755.26    1757.11    1758.97
     1760.82    1762.68    1764.54    1766.40    1768.26    1770.12    1771.98
     1773.84    1775.70    1777.57    1779.43    1781.30    1783.17    1785.03
     1786.90    1788.77    1790.64    1792.52    1794.39    1796.26    1798.14
     1800.01    1801.89    1803.77    1805.64    1807.52    1809.40    1811.28
     1813.17    1815.05    1816.93    1818.82    1820.70    1822.59    1824.48
     1826.36    1828.25    1830.14    1832.04    1833.93    1835.82    1837.71
     1839.61    1841.50    1843.40    1845.30    1847.20    1849.10    1851.00
     1852.90    1854.80    1856.70    1858.61    1860.51    1862.42    1864.32
     1866.23    1868.14    1870.05    1871.96    1873.87    1875.78    1877.70
     1879.61    1881.53    1883.44    1885.36    1887.28    1889.19    1891.11
     1893.03    1894.96    1896.88    1898.80    1900.73    1902.65    1904.58
     1906.50    1908.43    1910.36    1912.29    1914.22    1916.15    1918.08
     1920.02    1921.95    1923.89    1925.82    1927.76    1929.70    1931.64
     1933.58    1935.52    1937.46    1939.40    1941.35    1943.29    1945.23
     1947.18    1949.13    1951.08    1953.02    1954.97    1956.93    1958.88
     1960.83    1962.78    1964.74    1966.69    1968.65    1970.61    1972.56
     1974.52    1976.48    1978.44    1980.41    1982.37    1984.33    1986.30
     1988.26    1990.23    1992.20    1994.16    1996.13    1998.10    2000.07
     2002.04    2004.02    2005.99    2007.97    2009.94    2011.92    2013.90
     2015.87    2017.85    2019.83    2021.81    2023.79    2025.78    2027.76
     2029.75    2031.73    2033.72    2035.70    2037.69    2039.68    2041.67
     2043.66    2045.66    2047.65    2049.64    2051.64    2053.63    2055.63
     2057.63    2059.62    2061.62    2063.62    2065.62    2067.63    2069.63
     2071.63    2073.64    2075.64    2077.65    2079.66    2081.67    2083.68
     2085.69    2087.70    2089.71    2091.72    2093.74    2095.75    2097.77
     2099.78    2101.80    2103.82    2105.84    2107.86    2109.88    2111.90
     2113.92    2115.95    2117.97    2120.00    2122.02    2124.05    2126.08
     2128.11    2130.14    2132.17    2134.20    2136.24    2138.27    2140.30
     2142.34    2144.38    2146.41    2148.45    2150.49    2152.53    2154.57
     2156.62    2158.66    2160.70    2162.75    2164.79    2166.84    2168.89
     2170.94    2172.98    2175.04    2177.09    2179.14    2181.19    2183.25
     2185.30    2187.36    2189.41    2191.47    2193.53    2195.59    2197.65
     2199.71    2201.77    2203.83    2205.90    2207.96    2210.03    2212.10
     2214.16    2216.23    2218.30    2220.37    2222.44    2224.51    2226.59
     2228.66    2230.74    2232.81    2234.89    2236.97    2239.04    2241.12
     2243.20    2245.28    2247.37    2249.45    2251.53    2253.62    2255.70
     2257.79    2259.88    2261.97    2264.06    2266.15    2268.24    2270.33
     2272.42    2274.52    2276.61    2278.71    2280.80    2282.90    2285.00
     2287.10    2289.20    2291.30    2293.40    2295.50    2297.61    2299.71
     2301.82    2303.93    2306.03    2308.14    2310.25    2312.36    2314.47
     2316.58    2318.70    2320.81    2322.93    2325.04    2327.16    2329.27
     2331.39    2333.51    2335.63    2337.75    2339.88    2342.00    2344.12
     2346.25    2348.37    2350.50    2352.63    2354.75    2356.88    2359.01
     2361.15    2363.28    2365.41    2367.54    2369.68    2371.81    2373.95
     2376.09    2378.23    2380.36    2382.50    2384.65    2386.79    2388.93
     2391.07    2393.22    2395.36    2397.51    2399.66    2401.81    2403.95
     2406.10    2408.26    2410.41    2412.56    2414.71    2416.87    2419.02
     2421.18    2423.34    2425.50    2427.65    2429.81    2431.98    2434.14
     2436.30    2438.46    2440.63    2442.79    2444.96    2447.13    2449.29
     2451.46    2453.63    2455.80    2457.98
!IDEND=

