!FILE=Disk
!KIND=Spectrum
!LABORATORY=Oslo Cyclotron Laboratory (OCL)
!EXPERIMENT=mama
!COMMENT=Range curve for alp on silicon                              
!TIME=DATE:Thu Apr 26 10:22:17 2001
!CALIBRATION EkeV=3, 0.000000E+00, 0.400000E+02, 0.000000E+00
!PRECISION=16
!DIMENSION=1,0:2047
!CHANNEL=(0:2047)
     1.60411E-03    6.14908E-03    1.34332E-02    2.33384E-02    3.57793E-02
     5.06892E-02    6.80127E-02    8.77030E-02   0.109719   0.134025   0.160589
    0.189380   0.220373   0.253542   0.288864   0.326319   0.365886   0.407546
    0.451283   0.497078   0.544917   0.594785   0.646666   0.700547   0.756415
    0.814258   0.874064   0.935820   0.999516    1.06514    1.13268    1.20214
     1.27349    1.34673    1.42185    1.49884    1.57770    1.65840    1.74096
     1.82535    1.91158    1.99963    2.08949    2.18116    2.27464    2.36991
     2.46697    2.56581    2.66642    2.76881    2.87296    2.97886    3.08652
     3.19592    3.30707    3.41995    3.53455    3.65088    3.76894    3.88870
     4.01017    4.13335    4.25822    4.38479    4.51305    4.64300    4.77462
     4.90792    5.04289    5.17953    5.31783    5.45779    5.59941    5.74268
     5.88759    6.03414    6.18234    6.33217    6.48363    6.63671    6.79142
     6.94775    7.10570    7.26526    7.42642    7.58920    7.75358    7.91955
     8.08712    8.25629    8.42704    8.59938    8.77330    8.94880    9.12588
     9.30453    9.48476    9.66654    9.84990   10.03481   10.22129   10.40932
     10.5989    10.7900    10.9827    11.1769    11.3727    11.5700    11.7688
     11.9692    12.1711    12.3746    12.5795    12.7860    12.9940    13.2035
     13.4146    13.6271    13.8412    14.0568    14.2738    14.4924    14.7125
     14.9341    15.1572    15.3817    15.6078    15.8354    16.0644    16.2950
     16.5270    16.7605    16.9954    17.2319    17.4698    17.7092    17.9501
     18.1924    18.4362    18.6815    18.9282    19.1764    19.4261    19.6772
     19.9298    20.1838    20.4392    20.6961    20.9545    21.2143    21.4756
     21.7383    22.0024    22.2680    22.5350    22.8034    23.0733    23.3446
     23.6173    23.8915    24.1670    24.4440    24.7225    25.0023    25.2836
     25.5663    25.8504    26.1359    26.4228    26.7111    27.0008    27.2920
     27.5845    27.8785    28.1739    28.4706    28.7688    29.0683    29.3693
     29.6716    29.9753    30.2805    30.5870    30.8949    31.2042    31.5148
     31.8269    32.1403    32.4552    32.7714    33.0889    33.4079    33.7282
     34.0499    34.3730    34.6974    35.0232    35.3504    35.6789    36.0089
     36.3401    36.6728    37.0068    37.3421    37.6788    38.0169    38.3563
     38.6971    39.0393    39.3827    39.7276    40.0738    40.4213    40.7702
     41.1204    41.4719    41.8249    42.1791    42.5347    42.8916    43.2499
     43.6095    43.9704    44.3327    44.6963    45.0613    45.4275    45.7951
     46.1641    46.5343    46.9059    47.2788    47.6530    48.0286    48.4054
     48.7836    49.1631    49.5439    49.9261    50.3095    50.6943    51.0804
     51.4678    51.8565    52.2465    52.6378    53.0305    53.4244    53.8196
     54.2162    54.6140    55.0132    55.4136    55.8154    56.2184    56.6228
     57.0284    57.4354    57.8436    58.2531    58.6640    59.0761    59.4895
     59.9042    60.3202    60.7375    61.1560    61.5759    61.9970    62.4194
     62.8431    63.2681    63.6943    64.1219    64.5507    64.9808    65.4122
     65.8448    66.2788    66.7140    67.1504    67.5882    68.0272    68.4675
     68.9090    69.3518    69.7959    70.2413    70.6879    71.1358    71.5849
     72.0354    72.4870    72.9400    73.3942    73.8496    74.3064    74.7643
     75.2236    75.6841    76.1458    76.6088    77.0730    77.5385    78.0053
     78.4733    78.9426    79.4130    79.8848    80.3578    80.8321    81.3075
     81.7842    82.2622    82.7415    83.2219    83.7036    84.1865    84.6707
     85.1561    85.6428    86.1307    86.6199    87.1102    87.6018    88.0947
     88.5887    89.0840    89.5806    90.0784    90.5773    91.0775    91.5790
     92.0817    92.5856    93.0907    93.5971    94.1047    94.6135    95.1235
     95.6348    96.1473    96.6609    97.1759    97.6920    98.2094    98.7279
     99.2477    99.7687   100.2910   100.8144   101.3390   101.8649   102.3920
    102.9203   103.4498   103.9804   104.5124   105.0455    105.580    106.115
     106.652    107.190    107.729    108.270    108.811    109.354    109.898
     110.443    110.990    111.537    112.086    112.636    113.187    113.739
     114.293    114.848    115.404    115.961    116.519    117.079    117.640
     118.201    118.765    119.329    119.894    120.461    121.029    121.598
     122.168    122.740    123.312    123.886    124.461    125.037    125.615
     126.193    126.773    127.354    127.936    128.520    129.104    129.690
     130.276    130.864    131.454    132.044    132.635    133.228    133.822
     134.417    135.013    135.611    136.209    136.809    137.410    138.012
     138.615    139.220    139.825    140.432    141.040    141.649    142.259
     142.871    143.483    144.097    144.712    145.328    145.946    146.564
     147.184    147.804    148.426    149.049    149.673    150.299    150.925
     151.553    152.182    152.812    153.443    154.075    154.709    155.343
     155.979    156.616    157.254    157.894    158.534    159.175    159.818
     160.462    161.107    161.753    162.400    163.049    163.698    164.349
     165.001    165.654    166.308    166.964    167.620    168.278    168.936
     169.596    170.257    170.919    171.583    172.247    172.913    173.580
     174.247    174.916    175.587    176.258    176.930    177.604    178.279
     178.954    179.631    180.309    180.989    181.669    182.350    183.033
     183.717    184.402    185.088    185.775    186.463    187.152    187.843
     188.535    189.227    189.921    190.616    191.313    192.010    192.708
     193.408    194.108    194.810    195.513    196.217    196.922    197.629
     198.336    199.044    199.754    200.465    201.177    201.890    202.604
     203.319    204.035    204.753    205.471    206.191    206.912    207.634
     208.357    209.081    209.806    210.533    211.260    211.989    212.718
     213.449    214.181    214.914    215.648    216.383    217.120    217.857
     218.596    219.336    220.076    220.818    221.561    222.305    223.051
     223.797    224.544    225.293    226.042    226.793    227.545    228.298
     229.052    229.807    230.563    231.321    232.079    232.839    233.599
     234.361    235.124    235.888    236.653    237.419    238.186    238.954
     239.724    240.494    241.266    242.039    242.812    243.587    244.363
     245.140    245.918    246.698    247.478    248.259    249.042    249.826
     250.610    251.396    252.183    252.971    253.760    254.550    255.341
     256.134    256.927    257.721    258.517    259.314    260.111    260.910
     261.710    262.511    263.313    264.116    264.921    265.726    266.532
     267.340    268.148    268.958    269.769    270.580    271.393    272.207
     273.022    273.838    274.656    275.474    276.293    277.113    277.935
     278.757    279.581    280.406    281.232    282.059    282.886    283.715
     284.546    285.377    286.209    287.042    287.877    288.712    289.548
     290.386    291.225    292.064    292.905    293.747    294.590    295.434
     296.279    297.125    297.972    298.820    299.670    300.520    301.371
     302.224    303.077    303.932    304.788    305.644    306.502    307.361
     308.221    309.082    309.944    310.807    311.671    312.537    313.403
     314.270    315.139    316.008    316.879    317.750    318.623    319.497
     320.371    321.247    322.124    323.002    323.881    324.761    325.642
     326.524    327.407    328.292    329.177    330.063    330.951    331.839
     332.729    333.619    334.511    335.404    336.297    337.192    338.088
     338.985    339.883    340.782    341.682    342.583    343.485    344.388
     345.292    346.197    347.104    348.011    348.919    349.829    350.739
     351.651    352.563    353.477    354.391    355.307    356.224    357.142
     358.061    358.980    359.901    360.823    361.746    362.670    363.595
     364.521    365.449    366.377    367.306    368.236    369.167    370.100
     371.033    371.967    372.903    373.839    374.777    375.715    376.655
     377.596    378.537    379.480    380.424    381.368    382.314    383.261
     384.209    385.158    386.108    387.059    388.010    388.964    389.918
     390.873    391.829    392.786    393.744    394.703    395.664    396.625
     397.587    398.550    399.515    400.480    401.446    402.414    403.382
     404.352    405.322    406.294    407.266    408.240    409.214    410.190
     411.167    412.144    413.123    414.102    415.083    416.065    417.048
     418.031    419.016    420.002    420.989    421.977    422.966    423.956
     424.947    425.938    426.932    427.926    428.921    429.916    430.914
     431.912    432.911    433.911    434.912    435.914    436.917    437.921
     438.927    439.933    440.940    441.948    442.957    443.968    444.979
     445.991    447.005    448.019    449.034    450.051    451.068    452.086
     453.105    454.126    455.147    456.169    457.193    458.217    459.243
     460.269    461.297    462.325    463.354    464.385    465.417    466.449
     467.482    468.517    469.552    470.589    471.627    472.665    473.704
     474.745    475.787    476.829    477.873    478.917    479.963    481.009
     482.057    483.105    484.155    485.205    486.257    487.310    488.363
     489.418    490.473    491.530    492.587    493.646    494.706    495.766
     496.828    497.890    498.954    500.018    501.084    502.151    503.218
     504.287    505.356    506.427    507.498    508.571    509.644    510.719
     511.795    512.871    513.949    515.027    516.107    517.187    518.269
     519.351    520.435    521.519    522.605    523.691    524.778    525.867
     526.956    528.047    529.138    530.231    531.324    532.419    533.514
     534.610    535.708    536.806    537.905    539.006    540.107    541.209
     542.313    543.417    544.522    545.628    546.736    547.844    548.953
     550.063    551.175    552.287    553.400    554.514    555.629    556.746
     557.862    558.981    560.100    561.220    562.341    563.463    564.586
     565.710    566.835    567.961    569.088    570.216    571.344    572.474
     573.606    574.737    575.870    577.004    578.139    579.275    580.411
     581.549    582.687    583.827    584.968    586.110    587.252    588.396
     589.540    590.686    591.832    592.980    594.128    595.278    596.429
     597.580    598.732    599.886    601.040    602.195    603.352    604.508
     605.667    606.826    607.987    609.148    610.310    611.473    612.637
     613.802    614.968    616.135    617.303    618.472    619.642    620.813
     621.985    623.157    624.331    625.506    626.682    627.858    629.036
     630.214    631.394    632.575    633.756    634.939    636.123    637.307
     638.492    639.678    640.866    642.054    643.244    644.434    645.625
     646.818    648.010    649.204    650.400    651.595    652.793    653.991
     655.190    656.390    657.590    658.792    659.995    661.198    662.404
     663.609    664.816    666.024    667.232    668.441    669.652    670.863
     672.076    673.289    674.504    675.719    676.935    678.152    679.371
     680.589    681.810    683.031    684.253    685.476    686.700    687.924
     689.151    690.377    691.605    692.834    694.063    695.294    696.525
     697.758    698.992    700.226    701.461    702.698    703.935    705.173
     706.413    707.653    708.894    710.136    711.379    712.624    713.869
     715.114    716.361    717.609    718.857    720.108    721.358    722.610
     723.862    725.116    726.370    727.626    728.882    730.140    731.398
     732.657    733.917    735.178    736.440    737.703    738.968    740.232
     741.498    742.765    744.033    745.302    746.571    747.842    749.113
     750.386    751.660    752.934    754.209    755.485    756.763    758.041
     759.320    760.600    761.881    763.163    764.446    765.730    767.015
     768.301    769.588    770.875    772.164    773.453    774.744    776.035
     777.328    778.620    779.915    781.210    782.506    783.803    785.101
     786.400    787.700    789.001    790.303    791.606    792.910    794.214
     795.519    796.826    798.133    799.442    800.751    802.062    803.372
     804.684    805.998    807.311    808.627    809.942    811.259    812.577
     813.896    815.215    816.536    817.857    819.180    820.503    821.828
     823.153    824.479    825.806    827.134    828.463    829.793    831.124
     832.455    833.788    835.122    836.456    837.792    839.129    840.466
     841.804    843.144    844.484    845.825    847.167    848.510    849.854
     851.198    852.544    853.891    855.239    856.587    857.937    859.288
     860.639    861.991    863.345    864.698    866.054    867.409    868.767
     870.124    871.483    872.843    874.203    875.565    876.928    878.291
     879.655    881.021    882.387    883.754    885.122    886.491    887.861
     889.232    890.604    891.977    893.350    894.724    896.100    897.476
     898.854    900.232    901.611    902.991    904.372    905.755    907.137
     908.521    909.906    911.292    912.678    914.065    915.454    916.843
     918.234    919.625    921.017    922.410    923.804    925.199    926.595
     927.991    929.389    930.787    932.187    933.587    934.989    936.391
     937.794    939.198    940.603    942.009    943.416    944.824    946.232
     947.642    949.053    950.464    951.877    953.290    954.704    956.119
     957.535    958.952    960.370    961.789    963.208    964.629    966.051
     967.473    968.896    970.320    971.746    973.171    974.599    976.027
     977.456    978.885    980.316    981.747    983.180    984.614    986.048
     987.483    988.919    990.356    991.794    993.233    994.673    996.113
     997.556    998.998   1000.441   1001.886   1003.331   1004.778   1006.224
     1007.67    1009.12    1010.57    1012.02    1013.47    1014.93    1016.38
     1017.83    1019.29    1020.75    1022.20    1023.66    1025.12    1026.58
     1028.04    1029.50    1030.96    1032.43    1033.89    1035.36    1036.82
     1038.29    1039.76    1041.23    1042.70    1044.17    1045.64    1047.11
     1048.59    1050.06    1051.54    1053.01    1054.49    1055.97    1057.45
     1058.93    1060.41    1061.89    1063.37    1064.85    1066.34    1067.82
     1069.31    1070.80    1072.28    1073.77    1075.26    1076.75    1078.25
     1079.74    1081.23    1082.73    1084.22    1085.72    1087.21    1088.71
     1090.21    1091.71    1093.21    1094.71    1096.21    1097.72    1099.22
     1100.73    1102.23    1103.74    1105.25    1106.76    1108.27    1109.78
     1111.29    1112.80    1114.31    1115.83    1117.34    1118.86    1120.37
     1121.89    1123.41    1124.93    1126.45    1127.97    1129.49    1131.02
     1132.54    1134.07    1135.59    1137.12    1138.65    1140.17    1141.70
     1143.23    1144.77    1146.30    1147.83    1149.36    1150.90    1152.43
     1153.97    1155.51    1157.05    1158.59    1160.12    1161.67    1163.21
     1164.75    1166.29    1167.84    1169.38    1170.93    1172.48    1174.03
     1175.57    1177.13    1178.68    1180.23    1181.78    1183.33    1184.89
     1186.44    1188.00    1189.56    1191.11    1192.67    1194.23    1195.79
     1197.35    1198.92    1200.48    1202.04    1203.61    1205.17    1206.74
     1208.31    1209.88    1211.45    1213.02    1214.59    1216.16    1217.74
     1219.31    1220.88    1222.46    1224.04    1225.61    1227.19    1228.77
     1230.35    1231.93    1233.51    1235.10    1236.68    1238.27    1239.85
     1241.44    1243.02    1244.61    1246.20    1247.79    1249.38    1250.97
     1252.57    1254.16    1255.75    1257.35    1258.95    1260.54    1262.14
     1263.74    1265.34    1266.94    1268.54    1270.14    1271.75    1273.35
     1274.95    1276.56    1278.17    1279.77    1281.38    1282.99    1284.60
     1286.21    1287.83    1289.44    1291.05    1292.67    1294.28    1295.90
     1297.51    1299.13    1300.75    1302.37    1303.99    1305.62    1307.24
     1308.86    1310.49    1312.11    1313.74    1315.36    1316.99    1318.62
     1320.25    1321.88    1323.51    1325.14    1326.78    1328.41    1330.05
     1331.68    1333.32    1334.96    1336.59    1338.23    1339.87    1341.51
     1343.16    1344.80    1346.44    1348.09    1349.73    1351.38    1353.03
     1354.67    1356.32    1357.97    1359.62    1361.27    1362.93    1364.58
     1366.23    1367.89    1369.54    1371.20    1372.86    1374.52    1376.18
     1377.84    1379.50    1381.16    1382.82    1384.49    1386.15    1387.82
     1389.48    1391.15    1392.82    1394.49    1396.16    1397.83    1399.50
     1401.17    1402.84    1404.52    1406.19    1407.87    1409.55    1411.22
     1412.90    1414.58    1416.26    1417.94    1419.63    1421.31    1422.99
     1424.68    1426.36    1428.05    1429.74    1431.42    1433.11    1434.80
     1436.49    1438.19    1439.88    1441.57    1443.27    1444.96    1446.66
     1448.35    1450.05    1451.75    1453.45    1455.15    1456.85    1458.55
     1460.25    1461.96    1463.66    1465.37    1467.07    1468.78    1470.49
     1472.20    1473.91    1475.62    1477.33    1479.04    1480.76    1482.47
     1484.19    1485.90    1487.62    1489.34    1491.05    1492.77    1494.49
     1496.22    1497.94    1499.66    1501.38    1503.11    1504.83    1506.56
     1508.29    1510.01    1511.74    1513.47    1515.20    1516.93    1518.67
     1520.40    1522.13    1523.87    1525.60    1527.34    1529.08    1530.82
     1532.56    1534.30    1536.04    1537.78    1539.52    1541.26    1543.01
     1544.75    1546.50    1548.25    1549.99    1551.74    1553.49    1555.24
     1556.99    1558.75    1560.50    1562.25    1564.01    1565.76    1567.52
     1569.28    1571.03    1572.79    1574.55    1576.31    1578.08    1579.84
     1581.60    1583.36    1585.13    1586.90    1588.66    1590.43    1592.20
     1593.97    1595.74    1597.51    1599.28    1601.05    1602.82    1604.60
     1606.37    1608.15    1609.93    1611.71    1613.48    1615.26    1617.04
     1618.82    1620.61    1622.39    1624.17    1625.96    1627.74    1629.53
     1631.32    1633.11    1634.89    1636.68    1638.47    1640.27    1642.06
     1643.85    1645.65    1647.44    1649.23    1651.03    1652.83    1654.63
     1656.43    1658.23    1660.03    1661.83    1663.63    1665.43    1667.24
     1669.04    1670.85    1672.66    1674.46    1676.27    1678.08    1679.89
     1681.70    1683.51    1685.33    1687.14    1688.95    1690.77    1692.59
     1694.40    1696.22    1698.04    1699.86    1701.68    1703.50    1705.32
     1707.15    1708.97    1710.79    1712.62    1714.45    1716.27    1718.10
     1719.93    1721.76    1723.59    1725.42    1727.25    1729.09    1730.92
     1732.76    1734.59    1736.43    1738.26    1740.10    1741.94    1743.78
     1745.62    1747.46    1749.31    1751.15    1752.99    1754.84    1756.68
     1758.53    1760.38    1762.23    1764.07    1765.92    1767.78    1769.63
     1771.48    1773.33    1775.19    1777.04    1778.90    1780.76    1782.61
     1784.47    1786.33    1788.19    1790.05    1791.91    1793.78    1795.64
     1797.50    1799.37    1801.23    1803.10    1804.97    1806.84    1808.71
     1810.58    1812.45    1814.32    1816.19    1818.07    1819.94    1821.82
     1823.69    1825.57    1827.45    1829.32    1831.20    1833.08    1834.97
     1836.85    1838.73    1840.61    1842.50    1844.38    1846.27    1848.16
     1850.05    1851.93    1853.82    1855.71    1857.60    1859.50    1861.39
     1863.28    1865.18    1867.07    1868.97    1870.87    1872.76    1874.66
     1876.56    1878.46    1880.36    1882.27    1884.17    1886.07    1887.98
     1889.88    1891.79    1893.70    1895.60    1897.51    1899.42    1901.33
     1903.24    1905.16    1907.07    1908.98    1910.90    1912.81    1914.73
     1916.65    1918.56    1920.48    1922.40    1924.32    1926.25    1928.17
     1930.09    1932.01    1933.94    1935.86    1937.79    1939.72    1941.65
     1943.57    1945.50    1947.43    1949.37    1951.30    1953.23    1955.16
     1957.10    1959.03    1960.97    1962.91    1964.85    1966.78    1968.72
     1970.66    1972.61    1974.55    1976.49    1978.43    1980.38    1982.32
     1984.27    1986.22    1988.17    1990.11    1992.07    1994.01    1995.97
     1997.92    1999.87    2001.83    2003.78    2005.73    2007.69    2009.65
     2011.61    2013.56    2015.52    2017.48    2019.45    2021.41    2023.37
     2025.33    2027.30    2029.26    2031.23    2033.20    2035.16    2037.13
     2039.10    2041.07    2043.05    2045.02    2046.99    2048.96    2050.94
     2052.91    2054.89    2056.87    2058.84    2060.82    2062.80    2064.78
     2066.76    2068.75    2070.73    2072.71    2074.70    2076.68    2078.67
     2080.65    2082.64    2084.63    2086.62    2088.61    2090.60    2092.59
     2094.58    2096.58    2098.57    2100.57    2102.56    2104.56    2106.56
     2108.56    2110.56    2112.56    2114.56    2116.56    2118.56    2120.56
     2122.57    2124.57    2126.58    2128.59    2130.59    2132.60    2134.61
     2136.62    2138.63    2140.64    2142.65    2144.67    2146.68    2148.70
     2150.71    2152.73    2154.75    2156.76    2158.78    2160.80    2162.82
     2164.85    2166.87    2168.89    2170.91    2172.94    2174.97    2176.99
     2179.02    2181.05    2183.07    2185.10    2187.14    2189.17    2191.20
     2193.23    2195.26    2197.30    2199.33    2201.37    2203.41    2205.45
     2207.48    2209.52    2211.56    2213.61    2215.65    2217.69    2219.73
     2221.78    2223.82    2225.87    2227.92    2229.96    2232.01    2234.06
     2236.11    2238.16    2240.21    2242.27    2244.32    2246.37    2248.43
     2250.48    2252.54    2254.60    2256.66    2258.72    2260.78    2262.84
     2264.90    2266.96    2269.02    2271.09    2273.15    2275.22    2277.28
     2279.35    2281.42    2283.49    2285.56    2287.63    2289.70    2291.77
     2293.85    2295.92    2297.99    2300.07    2302.15    2304.22    2306.30
     2308.38    2310.46    2312.54    2314.62    2316.70    2318.78    2320.87
     2322.95    2325.04    2327.12    2329.21    2331.30    2333.39    2335.47
     2337.56    2339.66    2341.75    2343.84    2345.93    2348.03    2350.12
     2352.22    2354.31    2356.41    2358.51    2360.61    2362.71    2364.81
     2366.91    2369.01    2371.12    2373.22    2375.32    2377.43    2379.54
     2381.64    2383.75    2385.86    2387.97    2390.08    2392.19    2394.30
     2396.42    2398.53    2400.64    2402.76    2404.87    2406.99    2409.11
     2411.23    2413.34    2415.47    2417.59    2419.71    2421.83    2423.95
     2426.08    2428.20    2430.33    2432.45    2434.58    2436.71    2438.84
!IDEND=

