!FILE=Disk
!KIND=Spectrum
!LABORATORY=Oslo Cyclotron Laboratory (OCL)
!EXPERIMENT=mama
!COMMENT=Range curve for alp on silicon                              
!TIME=DATE:Fri Apr 13 15:33:07 2001
!CALIBRATION EkeV=3, 0.000000E+00, 0.400000E+02, 0.000000E+00
!PRECISION=16
!DIMENSION=1,0:2047
!CHANNEL=(0:2047)
     1.92982E-03    7.07037E-03    1.50820E-02    2.57938E-02    3.90902E-02
     5.48842E-02    7.31063E-02    9.36989E-02   0.116613   0.141805   0.169237
    0.198876   0.230691   0.264654   0.300740   0.338924   0.379184   0.421501
    0.465854   0.512226   0.560600   0.610959   0.663289   0.717574   0.773802
    0.831957   0.892029   0.954005    1.01787    1.08362    1.15124    1.22072
     1.29205    1.36522    1.44022    1.51704    1.59568    1.67612    1.75836
     1.84238    1.92819    2.01577    2.10512    2.19622    2.28908    2.38368
     2.48002    2.57809    2.67789    2.77940    2.88263    2.98757    3.09421
     3.20255    3.31257    3.42428    3.53767    3.65274    3.76948    3.88788
     4.00794    4.12965    4.25302    4.37803    4.50468    4.63297    4.76289
     4.89444    5.02761    5.16240    5.29881    5.43683    5.57645    5.71768
     5.86051    6.00493    6.15095    6.29855    6.44774    6.59851    6.75086
     6.90478    7.06027    7.21733    7.37595    7.53613    7.69787    7.86116
     8.02601    8.19240    8.36034    8.52982    8.70083    8.87339    9.04747
     9.22309    9.40023    9.57890    9.75908    9.94079   10.12401   10.30874
    10.49499    10.6827    10.8720    11.0628    11.2550    11.4488    11.6440
     11.8408    12.0390    12.2387    12.4399    12.6426    12.8468    13.0524
     13.2596    13.4682    13.6782    13.8898    14.1028    14.3172    14.5332
     14.7505    14.9694    15.1897    15.4114    15.6347    15.8593    16.0854
     16.3130    16.5420    16.7724    17.0043    17.2376    17.4723    17.7085
     17.9461    18.1851    18.4256    18.6675    18.9108    19.1556    19.4017
     19.6493    19.8983    20.1487    20.4005    20.6538    20.9084    21.1645
     21.4219    21.6808    21.9410    22.2027    22.4658    22.7302    22.9961
     23.2634    23.5320    23.8021    24.0735    24.3463    24.6205    24.8961
     25.1731    25.4514    25.7312    26.0123    26.2948    26.5786    26.8639
     27.1505    27.4385    27.7278    28.0185    28.3106    28.6041    28.8989
     29.1951    29.4926    29.7915    30.0918    30.3934    30.6964    31.0007
     31.3064    31.6134    31.9218    32.2316    32.5426    32.8551    33.1688
     33.4840    33.8004    34.1182    34.4374    34.7578    35.0797    35.4028
     35.7273    36.0531    36.3803    36.7088    37.0386    37.3697    37.7022
     38.0360    38.3711    38.7076    39.0453    39.3844    39.7249    40.0666
     40.4096    40.7540    41.0997    41.4467    41.7950    42.1446    42.4956
     42.8478    43.2013    43.5562    43.9124    44.2699    44.6286    44.9887
     45.3501    45.7128    46.0768    46.4421    46.8087    47.1766    47.5458
     47.9162    48.2880    48.6611    49.0354    49.4111    49.7880    50.1663
     50.5458    50.9266    51.3087    51.6920    52.0767    52.4626    52.8498
     53.2383    53.6281    54.0192    54.4115    54.8051    55.2001    55.5962
     55.9937    56.3924    56.7924    57.1937    57.5962    58.0000    58.4051
     58.8114    59.2190    59.6279    60.0381    60.4494    60.8621    61.2761
     61.6913    62.1077    62.5254    62.9444    63.3646    63.7861    64.2089
     64.6329    65.0582    65.4846    65.9124    66.3414    66.7717    67.2032
     67.6360    68.0700    68.5053    68.9418    69.3795    69.8186    70.2588
     70.7003    71.1430    71.5870    72.0323    72.4787    72.9264    73.3754
     73.8255    74.2770    74.7296    75.1835    75.6387    76.0950    76.5526
     77.0115    77.4715    77.9328    78.3953    78.8591    79.3240    79.7903
     80.2577    80.7264    81.1963    81.6674    82.1398    82.6133    83.0881
     83.5641    84.0414    84.5198    84.9995    85.4803    85.9624    86.4458
     86.9304    87.4161    87.9031    88.3913    88.8807    89.3714    89.8632
     90.3562    90.8505    91.3460    91.8427    92.3406    92.8397    93.3400
     93.8415    94.3443    94.8482    95.3533    95.8597    96.3672    96.8759
     97.3859    97.8971    98.4095    98.9230    99.4378    99.9537   100.4709
    100.9892   101.5088   102.0295   102.5515   103.0747   103.5990   104.1245
    104.6513   105.1792    105.708    106.239    106.770    107.303    107.837
     108.372    108.908    109.446    109.984    110.524    111.065    111.607
     112.151    112.695    113.241    113.788    114.336    114.885    115.436
     115.987    116.540    117.094    117.649    118.206    118.763    119.322
     119.882    120.443    121.005    121.569    122.133    122.699    123.266
     123.834    124.404    124.974    125.546    126.119    126.693    127.268
     127.844    128.422    129.000    129.580    130.161    130.743    131.327
     131.911    132.497    133.084    133.672    134.261    134.851    135.443
     136.035    136.629    137.224    137.820    138.417    139.016    139.615
     140.216    140.818    141.421    142.025    142.631    143.237    143.845
     144.454    145.064    145.675    146.287    146.901    147.515    148.131
     148.748    149.366    149.985    150.606    151.227    151.850    152.473
     153.098    153.725    154.352    154.980    155.610    156.240    156.872
     157.505    158.139    158.775    159.411    160.048    160.687    161.327
     161.968    162.610    163.253    163.898    164.543    165.190    165.837
     166.486    167.136    167.788    168.440    169.093    169.748    170.404
     171.061    171.719    172.378    173.038    173.699    174.362    175.026
     175.690    176.356    177.023    177.691    178.361    179.031    179.703
     180.375    181.049    181.724    182.400    183.077    183.756    184.435
     185.116    185.797    186.480    187.164    187.849    188.535    189.222
     189.911    190.600    191.291    191.983    192.676    193.370    194.065
     194.761    195.458    196.157    196.856    197.557    198.259    198.962
     199.666    200.371    201.078    201.785    202.493    203.203    203.914
     204.626    205.339    206.053    206.768    207.484    208.202    208.920
     209.640    210.360    211.082    211.805    212.529    213.254    213.981
     214.708    215.437    216.166    216.897    217.629    218.361    219.095
     219.831    220.567    221.304    222.042    222.782    223.523    224.264
     225.007    225.751    226.496    227.242    227.989    228.738    229.487
     230.238    230.989    231.742    232.496    233.251    234.006    234.764
     235.522    236.281    237.042    237.803    238.566    239.329    240.094
     240.860    241.627    242.395    243.164    243.934    244.705    245.478
     246.251    247.026    247.801    248.578    249.356    250.135    250.915
     251.696    252.478    253.261    254.046    254.831    255.618    256.405
     257.194    257.984    258.775    259.567    260.360    261.154    261.949
     262.745    263.543    264.341    265.141    265.941    266.743    267.546
     268.349    269.154    269.960    270.767    271.576    272.385    273.195
     274.007    274.819    275.633    276.447    277.263    278.080    278.897
     279.716    280.536    281.357    282.180    283.003    283.827    284.653
     285.479    286.307    287.135    287.965    288.795    289.627    290.460
     291.294    292.129    292.965    293.802    294.641    295.480    296.320
     297.162    298.004    298.848    299.692    300.538    301.385    302.233
     303.082    303.932    304.782    305.635    306.488    307.342    308.197
     309.053    309.911    310.769    311.629    312.490    313.351    314.214
     315.078    315.943    316.808    317.675    318.543    319.412    320.283
     321.154    322.026    322.899    323.774    324.649    325.526    326.403
     327.282    328.161    329.042    329.924    330.807    331.691    332.576
     333.462    334.349    335.237    336.126    337.016    337.907    338.800
     339.693    340.587    341.483    342.379    343.277    344.176    345.075
     345.976    346.878    347.781    348.685    349.590    350.496    351.403
     352.311    353.220    354.130    355.041    355.953    356.867    357.781
     358.696    359.613    360.530    361.449    362.368    363.289    364.211
     365.134    366.057    366.982    367.908    368.835    369.763    370.692
     371.622    372.553    373.485    374.418    375.352    376.287    377.224
     378.161    379.099    380.039    380.979    381.921    382.863    383.807
     384.751    385.697    386.644    387.591    388.540    389.490    390.441
     391.392    392.345    393.299    394.254    395.210    396.167    397.125
     398.085    399.044    400.006    400.968    401.931    402.895    403.861
     404.827    405.794    406.763    407.732    408.703    409.674    410.647
     411.620    412.595    413.570    414.547    415.525    416.503    417.483
     418.464    419.446    420.429    421.412    422.397    423.383    424.370
     425.358    426.347    427.337    428.328    429.320    430.313    431.307
     432.302    433.299    434.296    435.294    436.293    437.294    438.295
     439.297    440.300    441.305    442.310    443.316    444.324    445.332
     446.342    447.352    448.364    449.376    450.390    451.405    452.420
     453.437    454.454    455.473    456.493    457.513    458.535    459.558
     460.581    461.606    462.632    463.659    464.686    465.715    466.745
     467.776    468.808    469.841    470.875    471.910    472.946    473.982
     475.021    476.060    477.099    478.140    479.183    480.226    481.270
     482.315    483.361    484.408    485.456    486.505    487.555    488.607
     489.658    490.712    491.766    492.821    493.877    494.935    495.993
     497.052    498.112    499.173    500.235    501.299    502.363    503.428
     504.495    505.562    506.630    507.700    508.770    509.841    510.913
     511.987    513.061    514.136    515.213    516.290    517.369    518.448
     519.529    520.610    521.692    522.776    523.860    524.945    526.032
     527.119    528.208    529.297    530.387    531.479    532.571    533.665
     534.759    535.854    536.951    538.048    539.147    540.246    541.347
     542.448    543.551    544.654    545.758    546.864    547.970    549.077
     550.186    551.295    552.406    553.517    554.630    555.743    556.857
     557.973    559.089    560.207    561.325    562.444    563.565    564.686
     565.809    566.932    568.056    569.182    570.308    571.435    572.563
     573.693    574.823    575.954    577.087    578.220    579.355    580.490
     581.626    582.763    583.901    585.041    586.181    587.322    588.465
     589.608    590.752    591.897    593.044    594.191    595.339    596.488
     597.638    598.789    599.941    601.095    602.249    603.404    604.560
     605.717    606.875    608.034    609.194    610.355    611.517    612.680
     613.844    615.009    616.175    617.342    618.510    619.679    620.849
     622.020    623.192    624.364    625.538    626.713    627.889    629.066
     630.244    631.422    632.602    633.783    634.964    636.147    637.331
     638.515    639.701    640.888    642.075    643.264    644.453    645.644
     646.836    648.028    649.221    650.416    651.611    652.808    654.005
     655.204    656.403    657.603    658.804    660.007    661.210    662.414
     663.620    664.826    666.033    667.241    668.450    669.660    670.872
     672.084    673.297    674.511    675.726    676.942    678.158    679.377
     680.596    681.815    683.036    684.258    685.481    686.704    687.930
     689.155    690.382    691.609    692.838    694.068    695.298    696.530
     697.763    698.996    700.230    701.466    702.702    703.940    705.178
     706.418    707.658    708.899    710.141    711.385    712.629    713.874
     715.120    716.367    717.615    718.864    720.115    721.365    722.617
     723.870    725.124    726.379    727.634    728.892    730.150    731.408
     732.668    733.929    735.190    736.453    737.716    738.981    740.246
     741.513    742.780    744.049    745.318    746.588    747.860    749.132
     750.405    751.679    752.954    754.231    755.508    756.785    758.065
     759.344    760.625    761.907    763.190    764.474    765.759    767.045
     768.332    769.619    770.908    772.197    773.488    774.779    776.072
     777.365    778.660    779.955    781.251    782.548    783.847    785.146
     786.446    787.747    789.049    790.353    791.657    792.961    794.267
     795.574    796.882    798.191    799.500    800.811    802.123    803.436
     804.749    806.064    807.379    808.696    810.013    811.331    812.650
     813.971    815.292    816.615    817.937    819.262    820.587    821.913
     823.240    824.568    825.897    827.227    828.557    829.889    831.222
     832.555    833.890    835.225    836.562    837.899    839.238    840.577
     841.917    843.258    844.601    845.944    847.288    848.633    849.980
     851.326    852.674    854.023    855.373    856.723    858.076    859.428
     860.781    862.136    863.492    864.848    866.206    867.564    868.924
     870.284    871.645    873.007    874.371    875.735    877.100    878.466
     879.832    881.200    882.569    883.939    885.309    886.681    888.054
     889.427    890.801    892.177    893.553    894.930    896.309    897.688
     899.069    900.450    901.832    903.215    904.599    905.983    907.369
     908.756    910.144    911.533    912.922    914.312    915.704    917.097
     918.490    919.885    921.280    922.676    924.073    925.471    926.870
     928.270    929.671    931.073    932.476    933.880    935.284    936.690
     938.096    939.504    940.913    942.322    943.732    945.143    946.556
     947.969    949.383    950.798    952.214    953.631    955.049    956.468
     957.887    959.308    960.730    962.152    963.576    965.000    966.425
     967.852    969.279    970.707    972.136    973.567    974.998    976.430
     977.863    979.296    980.731    982.166    983.603    985.040    986.479
     987.918    989.359    990.801    992.243    993.686    995.130    996.575
     998.020    999.468   1000.915   1002.364   1003.814   1005.265    1006.72
     1008.17    1009.62    1011.08    1012.53    1013.99    1015.45    1016.90
     1018.36    1019.82    1021.28    1022.75    1024.21    1025.67    1027.14
     1028.60    1030.07    1031.54    1033.00    1034.47    1035.94    1037.41
     1038.89    1040.36    1041.83    1043.31    1044.78    1046.26    1047.74
     1049.22    1050.70    1052.18    1053.66    1055.14    1056.62    1058.11
     1059.59    1061.08    1062.57    1064.05    1065.54    1067.03    1068.52
     1070.02    1071.51    1073.00    1074.50    1075.99    1077.49    1078.98
     1080.48    1081.98    1083.48    1084.98    1086.48    1087.99    1089.49
     1090.99    1092.50    1094.01    1095.51    1097.02    1098.53    1100.04
     1101.55    1103.06    1104.58    1106.09    1107.60    1109.12    1110.64
     1112.15    1113.67    1115.19    1116.71    1118.23    1119.76    1121.28
     1122.80    1124.33    1125.85    1127.38    1128.91    1130.44    1131.97
     1133.50    1135.03    1136.56    1138.09    1139.63    1141.16    1142.70
     1144.24    1145.77    1147.31    1148.85    1150.39    1151.93    1153.48
     1155.02    1156.56    1158.11    1159.65    1161.20    1162.75    1164.30
     1165.85    1167.40    1168.95    1170.50    1172.06    1173.61    1175.17
     1176.72    1178.28    1179.84    1181.39    1182.95    1184.52    1186.08
     1187.64    1189.20    1190.77    1192.33    1193.90    1195.47    1197.03
     1198.60    1200.17    1201.74    1203.32    1204.89    1206.46    1208.04
     1209.61    1211.19    1212.77    1214.34    1215.92    1217.50    1219.08
     1220.66    1222.25    1223.83    1225.42    1227.00    1228.59    1230.17
     1231.76    1233.35    1234.94    1236.53    1238.12    1239.72    1241.31
     1242.91    1244.50    1246.10    1247.69    1249.29    1250.89    1252.49
     1254.09    1255.70    1257.30    1258.90    1260.51    1262.11    1263.72
     1265.33    1266.93    1268.54    1270.15    1271.76    1273.37    1274.99
     1276.60    1278.22    1279.83    1281.45    1283.07    1284.68    1286.30
     1287.92    1289.54    1291.17    1292.79    1294.41    1296.04    1297.66
     1299.29    1300.92    1302.54    1304.17    1305.80    1307.43    1309.07
     1310.70    1312.33    1313.97    1315.60    1317.24    1318.88    1320.51
     1322.15    1323.79    1325.43    1327.07    1328.72    1330.36    1332.01
     1333.65    1335.30    1336.95    1338.59    1340.24    1341.89    1343.54
     1345.20    1346.85    1348.50    1350.16    1351.81    1353.47    1355.12
     1356.78    1358.44    1360.10    1361.76    1363.42    1365.09    1366.75
     1368.41    1370.08    1371.75    1373.41    1375.08    1376.75    1378.42
     1380.09    1381.76    1383.43    1385.11    1386.78    1388.46    1390.13
     1391.81    1393.49    1395.17    1396.85    1398.53    1400.21    1401.89
     1403.57    1405.26    1406.94    1408.63    1410.32    1412.00    1413.69
     1415.38    1417.07    1418.76    1420.46    1422.15    1423.84    1425.54
     1427.23    1428.93    1430.63    1432.33    1434.03    1435.73    1437.43
     1439.13    1440.83    1442.54    1444.24    1445.95    1447.66    1449.36
     1451.07    1452.78    1454.49    1456.20    1457.91    1459.63    1461.34
     1463.05    1464.77    1466.49    1468.20    1469.92    1471.64    1473.36
     1475.08    1476.80    1478.53    1480.25    1481.98    1483.70    1485.43
     1487.15    1488.88    1490.61    1492.34    1494.07    1495.80    1497.54
     1499.27    1501.00    1502.74    1504.48    1506.21    1507.95    1509.69
     1511.43    1513.17    1514.91    1516.65    1518.40    1520.14    1521.89
     1523.63    1525.38    1527.13    1528.87    1530.62    1532.37    1534.13
     1535.88    1537.63    1539.39    1541.14    1542.90    1544.65    1546.41
     1548.17    1549.93    1551.69    1553.45    1555.21    1556.97    1558.74
     1560.50    1562.27    1564.03    1565.80    1567.57    1569.34    1571.11
     1572.88    1574.65    1576.42    1578.20    1579.97    1581.75    1583.52
     1585.30    1587.08    1588.86    1590.64    1592.42    1594.20    1595.98
     1597.77    1599.55    1601.33    1603.12    1604.91    1606.69    1608.48
     1610.27    1612.06    1613.85    1615.65    1617.44    1619.23    1621.03
     1622.82    1624.62    1626.42    1628.22    1630.02    1631.81    1633.62
     1635.42    1637.22    1639.03    1640.83    1642.63    1644.44    1646.25
     1648.06    1649.86    1651.68    1653.49    1655.30    1657.11    1658.92
     1660.74    1662.55    1664.37    1666.19    1668.00    1669.82    1671.64
     1673.46    1675.28    1677.10    1678.93    1680.75    1682.58    1684.40
     1686.23    1688.06    1689.88    1691.71    1693.54    1695.37    1697.21
     1699.04    1700.87    1702.71    1704.54    1706.38    1708.22    1710.05
     1711.89    1713.73    1715.57    1717.42    1719.26    1721.10    1722.95
     1724.79    1726.64    1728.48    1730.33    1732.18    1734.03    1735.88
     1737.73    1739.58    1741.43    1743.29    1745.14    1747.00    1748.86
     1750.71    1752.57    1754.43    1756.29    1758.15    1760.01    1761.88
     1763.74    1765.60    1767.47    1769.33    1771.20    1773.07    1774.94
     1776.81    1778.68    1780.55    1782.42    1784.29    1786.17    1788.04
     1789.92    1791.80    1793.67    1795.55    1797.43    1799.31    1801.19
     1803.07    1804.96    1806.84    1808.72    1810.61    1812.50    1814.38
     1816.27    1818.16    1820.05    1821.94    1823.83    1825.72    1827.62
     1829.51    1831.41    1833.30    1835.20    1837.10    1839.00    1840.89
     1842.79    1844.70    1846.60    1848.50    1850.40    1852.31    1854.21
     1856.12    1858.03    1859.94    1861.84    1863.75    1865.67    1867.58
     1869.49    1871.40    1873.32    1875.23    1877.15    1879.06    1880.98
     1882.90    1884.82    1886.74    1888.66    1890.58    1892.51    1894.43
     1896.35    1898.28    1900.20    1902.13    1904.06    1905.99    1907.92
     1909.85    1911.78    1913.71    1915.65    1917.58    1919.52    1921.45
     1923.39    1925.33    1927.26    1929.20    1931.14    1933.08    1935.03
     1936.97    1938.91    1940.86    1942.80    1944.75    1946.70    1948.64
     1950.59    1952.54    1954.49    1956.45    1958.40    1960.35    1962.30
     1964.26    1966.21    1968.17    1970.13    1972.09    1974.05    1976.01
     1977.97    1979.93    1981.89    1983.86    1985.82    1987.79    1989.75
     1991.72    1993.69    1995.66    1997.63    1999.60    2001.57    2003.54
     2005.51    2007.49    2009.46    2011.44    2013.41    2015.39    2017.37
     2019.35    2021.33    2023.31    2025.29    2027.27    2029.26    2031.24
     2033.23    2035.21    2037.20    2039.19    2041.18    2043.16    2045.15
     2047.15    2049.14    2051.13    2053.12    2055.12    2057.11    2059.11
     2061.11    2063.11    2065.11    2067.11    2069.11    2071.11    2073.11
     2075.11    2077.12    2079.12    2081.13    2083.14    2085.14    2087.15
     2089.16    2091.17    2093.18    2095.19    2097.21    2099.22    2101.24
     2103.25    2105.27    2107.28    2109.30    2111.32    2113.34    2115.36
     2117.38    2119.40    2121.43    2123.45    2125.48    2127.50    2129.53
     2131.55    2133.58    2135.61    2137.64    2139.67    2141.70    2143.74
     2145.77    2147.80    2149.84    2151.88    2153.91    2155.95    2157.99
     2160.03    2162.07    2164.11    2166.15    2168.19    2170.24    2172.28
     2174.33    2176.37    2178.42    2180.47    2182.52    2184.56    2186.62
     2188.67    2190.72    2192.77    2194.83    2196.88    2198.93    2200.99
     2203.05    2205.11    2207.17    2209.23    2211.29    2213.35    2215.41
     2217.47    2219.54    2221.60    2223.67    2225.74    2227.80    2229.87
     2231.94    2234.01    2236.08    2238.15    2240.23    2242.30    2244.37
     2246.45    2248.52    2250.60    2252.68    2254.76    2256.84    2258.92
     2261.00    2263.08    2265.17    2267.25    2269.33    2271.42    2273.50
     2275.59    2277.68    2279.77    2281.86    2283.95    2286.04    2288.13
     2290.22    2292.32    2294.41    2296.51    2298.61    2300.70    2302.80
     2304.90    2307.00    2309.10    2311.20    2313.31    2315.41    2317.51
     2319.62    2321.72    2323.83    2325.94    2328.05    2330.15    2332.27
     2334.38    2336.49    2338.60    2340.71    2342.83    2344.94    2347.06
     2349.18    2351.29    2353.41    2355.53    2357.65    2359.77    2361.90
     2364.02    2366.14    2368.27    2370.39    2372.52    2374.64    2376.77
     2378.90    2381.03    2383.16    2385.29    2387.42    2389.56    2391.69
     2393.82    2395.96    2398.10    2400.23    2402.37    2404.51    2406.65
     2408.79    2410.93    2413.07    2415.22    2417.36    2419.51    2421.65
     2423.80    2425.95    2428.10    2430.24    2432.39    2434.54    2436.70
!IDEND=

