!FILE=Disk
!KIND=Spectrum
!LABORATORY=Oslo Cyclotron Laboratory (OCL)
!EXPERIMENT=mama
!COMMENT=Range curve for alp on silicon                              
!TIME=DATE:Fri Jan 17 14:53:40 2003
!CALIBRATION EkeV=3, 0.000000E+00, 0.400000E+02, 0.000000E+00
!PRECISION=16
!DIMENSION=1,0:2047
!CHANNEL=(0:2047)
    0.194243   0.322447   0.448149   0.574404   0.702207   0.831974   0.963894
     1.09806    1.23449    1.37322    1.51421    1.65747    1.80295    1.95065
     2.10054    2.25258    2.40675    2.56302    2.72137    2.88177    3.04421
     3.20865    3.37507    3.54346    3.71379    3.88603    4.06019    4.23622
     4.41412    4.59388    4.77546    4.95886    5.14407    5.33106    5.51982
     5.71035    5.90261    6.09662    6.29234    6.48977    6.68890    6.88971
     7.09220    7.29635    7.50215    7.70960    7.91869    8.12939    8.34171
     8.55564    8.77117    8.98828    9.20697    9.42724    9.64907    9.87246
    10.09740   10.32387   10.55189    10.7814    11.0125    11.2451    11.4792
     11.7147    11.9518    12.1904    12.4305    12.6720    12.9150    13.1595
     13.4054    13.6528    13.9016    14.1519    14.4036    14.6568    14.9113
     15.1674    15.4248    15.6836    15.9439    16.2055    16.4686    16.7331
     16.9989    17.2661    17.5348    17.8048    18.0762    18.3489    18.6231
     18.8986    19.1754    19.4536    19.7332    20.0141    20.2964    20.5800
     20.8650    21.1512    21.4389    21.7278    22.0181    22.3097    22.6026
     22.8969    23.1925    23.4893    23.7875    24.0870    24.3878    24.6899
     24.9933    25.2980    25.6040    25.9113    26.2198    26.5297    26.8408
     27.1532    27.4669    27.7819    28.0981    28.4156    28.7344    29.0544
     29.3757    29.6983    30.0221    30.3472    30.6735    31.0011    31.3299
     31.6600    31.9913    32.3239    32.6577    32.9928    33.3290    33.6665
     34.0053    34.3453    34.6865    35.0290    35.3726    35.7175    36.0636
     36.4110    36.7595    37.1093    37.4603    37.8125    38.1659    38.5205
     38.8763    39.2333    39.5916    39.9510    40.3116    40.6735    41.0365
     41.4007    41.7661    42.1328    42.5006    42.8696    43.2398    43.6111
     43.9837    44.3574    44.7324    45.1085    45.4858    45.8642    46.2439
     46.6247    47.0067    47.3898    47.7741    48.1597    48.5463    48.9342
     49.3232    49.7134    50.1047    50.4972    50.8909    51.2857    51.6816
     52.0788    52.4771    52.8765    53.2771    53.6789    54.0818    54.4858
     54.8910    55.2974    55.7048    56.1135    56.5232    56.9342    57.3463
     57.7595    58.1738    58.5893    59.0059    59.4237    59.8426    60.2626
     60.6838    61.1061    61.5295    61.9540    62.3797    62.8066    63.2345
     63.6636    64.0938    64.5251    64.9575    65.3911    65.8258    66.2616
     66.6985    67.1366    67.5757    68.0160    68.4574    68.8999    69.3435
     69.7883    70.2341    70.6811    71.1292    71.5784    72.0286    72.4800
     72.9325    73.3862    73.8409    74.2967    74.7536    75.2116    75.6708
     76.1310    76.5923    77.0548    77.5183    77.9829    78.4487    78.9155
     79.3834    79.8524    80.3225    80.7937    81.2660    81.7394    82.2139
     82.6895    83.1661    83.6439    84.1227    84.6026    85.0837    85.5657
     86.0489    86.5332    87.0186    87.5050    87.9925    88.4811    88.9708
     89.4615    89.9534    90.4464    90.9404    91.4354    91.9316    92.4288
     92.9271    93.4265    93.9269    94.4285    94.9311    95.4348    95.9395
     96.4453    96.9523    97.4602    97.9693    98.4794    98.9905    99.5029
    100.0161   100.5305   101.0459   101.5624   102.0800   102.5986   103.1184
    103.6391   104.1609   104.6838   105.2078    105.733    106.259    106.786
     107.314    107.844    108.374    108.905    109.438    109.971    110.506
     111.041    111.578    112.116    112.654    113.194    113.735    114.277
     114.820    115.364    115.909    116.455    117.002    117.551    118.100
     118.650    119.201    119.754    120.307    120.862    121.417    121.974
     122.532    123.090    123.650    124.211    124.773    125.336    125.900
     126.464    127.030    127.597    128.166    128.735    129.305    129.876
     130.448    131.022    131.596    132.171    132.748    133.325    133.903
     134.483    135.063    135.645    136.228    136.811    137.396    137.982
     138.569    139.156    139.745    140.335    140.926    141.518    142.111
     142.704    143.299    143.896    144.493    145.091    145.690    146.290
     146.891    147.493    148.096    148.701    149.306    149.912    150.519
     151.128    151.737    152.347    152.959    153.572    154.185    154.799
     155.415    156.031    156.649    157.267    157.887    158.508    159.129
     159.752    160.376    161.000    161.626    162.253    162.881    163.509
     164.139    164.770    165.402    166.035    166.668    167.303    167.939
     168.576    169.214    169.853    170.493    171.134    171.776    172.419
     173.063    173.708    174.354    175.001    175.649    176.298    176.948
     177.599    178.251    178.904    179.558    180.213    180.870    181.527
     182.185    182.844    183.504    184.165    184.827    185.491    186.155
     186.820    187.486    188.153    188.822    189.491    190.161    190.832
     191.504    192.178    192.852    193.527    194.204    194.881    195.559
     196.238    196.919    197.600    198.282    198.965    199.650    200.335
     201.021    201.708    202.397    203.086    203.776    204.468    205.160
     205.853    206.547    207.243    207.939    208.636    209.334    210.034
     210.734    211.435    212.137    212.841    213.545    214.250    214.956
     215.664    216.372    217.081    217.791    218.502    219.215    219.928
     220.642    221.357    222.073    222.791    223.509    224.228    224.948
     225.669    226.391    227.115    227.839    228.564    229.290    230.017
     230.745    231.474    232.204    232.935    233.667    234.401    235.134
     235.870    236.606    237.343    238.080    238.819    239.559    240.300
     241.042    241.785    242.529    243.274    244.020    244.767    245.515
     246.264    247.013    247.764    248.516    249.269    250.023    250.777
     251.533    252.290    253.048    253.806    254.566    255.327    256.088
     256.851    257.615    258.379    259.145    259.911    260.679    261.448
     262.217    262.987    263.759    264.532    265.305    266.079    266.855
     267.631    268.409    269.187    269.966    270.746    271.528    272.310
     273.093    273.878    274.663    275.449    276.236    277.024    277.813
     278.604    279.395    280.187    280.980    281.774    282.569    283.365
     284.162    284.960    285.759    286.559    287.359    288.161    288.964
     289.768    290.572    291.378    292.185    292.993    293.801    294.611
     295.422    296.233    297.046    297.859    298.674    299.489    300.306
     301.123    301.942    302.761    303.581    304.403    305.225    306.048
     306.872    307.698    308.524    309.351    310.179    311.008    311.839
     312.669    313.502    314.335    315.169    316.003    316.839    317.676
     318.514    319.353    320.193    321.033    321.875    322.718    323.562
     324.406    325.252    326.098    326.946    327.795    328.644    329.495
     330.346    331.198    332.052    332.906    333.762    334.618    335.475
     336.333    337.193    338.053    338.914    339.776    340.639    341.503
     342.368    343.234    344.101    344.969    345.838    346.707    347.578
     348.450    349.323    350.197    351.071    351.946    352.823    353.701
     354.579    355.459    356.339    357.220    358.103    358.986    359.870
     360.756    361.642    362.529    363.417    364.306    365.197    366.088
     366.980    367.873    368.767    369.661    370.557    371.454    372.352
     373.251    374.150    375.051    375.953    376.856    377.759    378.664
     379.569    380.475    381.383    382.291    383.201    384.111    385.022
     385.934    386.848    387.762    388.677    389.593    390.510    391.428
     392.347    393.267    394.188    395.110    396.032    396.956    397.881
     398.806    399.733    400.661    401.589    402.519    403.449    404.380
     405.313    406.246    407.180    408.116    409.052    409.989    410.927
     411.866    412.806    413.747    414.689    415.632    416.576    417.521
     418.467    419.414    420.361    421.310    422.259    423.210    424.162
     425.114    426.068    427.022    427.977    428.934    429.891    430.849
     431.808    432.768    433.730    434.692    435.655    436.619    437.584
     438.550    439.516    440.484    441.453    442.423    443.393    444.365
     445.337    446.311    447.285    448.261    449.237    450.215    451.193
     452.172    453.152    454.133    455.115    456.099    457.083    458.068
     459.053    460.040    461.028    462.017    463.007    463.998    464.989
     465.982    466.975    467.970    468.965    469.962    470.959    471.958
     472.957    473.957    474.958    475.960    476.963    477.967    478.973
     479.978    480.985    481.993    483.002    484.012    485.022    486.034
     487.046    488.060    489.075    490.090    491.106    492.123    493.142
     494.161    495.182    496.202    497.225    498.248    499.272    500.296
     501.323    502.350    503.377    504.406    505.436    506.466    507.498
     508.531    509.564    510.599    511.634    512.670    513.708    514.746
     515.785    516.825    517.866    518.908    519.951    520.996    522.041
     523.086    524.133    525.181    526.230    527.279    528.329    529.381
     530.433    531.487    532.542    533.597    534.653    535.711    536.769
     537.828    538.888    539.949    541.011    542.073    543.137    544.202
     545.268    546.335    547.403    548.471    549.540    550.611    551.682
     552.755    553.828    554.903    555.978    557.054    558.131    559.209
     560.288    561.368    562.449    563.531    564.614    565.697    566.782
     567.868    568.955    570.042    571.130    572.220    573.311    574.402
     575.494    576.587    577.681    578.776    579.872    580.970    582.067
     583.166    584.266    585.367    586.469    587.571    588.674    589.779
     590.885    591.991    593.099    594.207    595.317    596.426    597.538
     598.650    599.763    600.877    601.992    603.108    604.225    605.342
     606.461    607.581    608.701    609.823    610.945    612.069    613.193
     614.318    615.445    616.572    617.700    618.829    619.959    621.090
     622.223    623.355    624.489    625.624    626.760    627.896    629.034
     630.172    631.312    632.453    633.594    634.736    635.879    637.024
     638.168    639.315    640.462    641.610    642.758    643.908    645.059
     646.211    647.364    648.517    649.672    650.828    651.984    653.141
     654.300    655.459    656.619    657.780    658.942    660.105    661.270
     662.435    663.600    664.767    665.935    667.104    668.273    669.444
     670.615    671.788    672.961    674.136    675.311    676.487    677.664
     678.843    680.022    681.201    682.382    683.564    684.747    685.931
     687.116    688.301    689.488    690.676    691.863    693.053    694.244
     695.435    696.627    697.821    699.014    700.210    701.406    702.602
     703.800    704.999    706.199    707.399    708.602    709.803    711.007
     712.212    713.417    714.624    715.831    717.039    718.248    719.458
     720.669    721.881    723.095    724.308    725.523    726.739    727.955
     729.173    730.392    731.611    732.832    734.053    735.275    736.499
     737.723    738.948    740.174    741.401    742.629    743.858    745.087
     746.318    747.550    748.782    750.016    751.251    752.486    753.723
     754.960    756.199    757.438    758.678    759.918    761.161    762.403
     763.648    764.893    766.138    767.385    768.633    769.881    771.131
     772.382    773.633    774.885    776.139    777.393    778.648    779.904
     781.161    782.419    783.678    784.938    786.199    787.461    788.723
     789.987    791.252    792.517    793.784    795.051    796.319    797.588
     798.858    800.129    801.401    802.674    803.948    805.223    806.499
     807.776    809.054    810.333    811.612    812.892    814.174    815.456
     816.739    818.024    819.309    820.595    821.883    823.171    824.459
     825.749    827.040    828.331    829.624    830.917    832.212    833.508
     834.805    836.102    837.400    838.699    840.000    841.301    842.603
     843.905    845.210    846.514    847.821    849.127    850.435    851.743
     853.053    854.363    855.675    856.987    858.301    859.615    860.930
     862.246    863.563    864.881    866.200    867.520    868.840    870.163
     871.485    872.808    874.134    875.459    876.785    878.113    879.441
     880.770    882.101    883.431    884.764    886.097    887.430    888.765
     890.101    891.438    892.776    894.114    895.454    896.794    898.135
     899.477    900.821    902.165    903.511    904.857    906.204    907.551
     908.900    910.250    911.601    912.952    914.305    915.659    917.013
     918.369    919.725    921.082    922.441    923.799    925.160    926.521
     927.883    929.246    930.609    931.974    933.340    934.707    936.075
     937.443    938.812    940.183    941.555    942.926    944.299    945.674
     947.049    948.424    949.802    951.180    952.559    953.938    955.319
     956.701    958.083    959.467    960.851    962.236    963.623    965.010
     966.398    967.787    969.177    970.569    971.960    973.353    974.747
     976.142    977.536    978.934    980.331    981.730    983.129    984.529
     985.931    987.333    988.736    990.140    991.545    992.951    994.357
     995.766    997.175    998.584    999.994   1001.406   1002.819   1004.232
    1005.647    1007.06    1008.48    1009.89    1011.31    1012.73    1014.15
     1015.57    1017.00    1018.42    1019.84    1021.27    1022.69    1024.12
     1025.55    1026.97    1028.40    1029.83    1031.26    1032.70    1034.13
     1035.56    1037.00    1038.43    1039.87    1041.31    1042.75    1044.19
     1045.63    1047.07    1048.51    1049.96    1051.40    1052.84    1054.29
     1055.74    1057.19    1058.63    1060.08    1061.54    1062.99    1064.44
     1065.89    1067.35    1068.80    1070.26    1071.72    1073.18    1074.63
     1076.09    1077.56    1079.02    1080.48    1081.94    1083.41    1084.88
     1086.34    1087.81    1089.28    1090.75    1092.22    1093.69    1095.16
     1096.64    1098.11    1099.58    1101.06    1102.54    1104.02    1105.49
     1106.97    1108.45    1109.94    1111.42    1112.90    1114.39    1115.87
     1117.36    1118.84    1120.33    1121.82    1123.31    1124.80    1126.29
     1127.79    1129.28    1130.78    1132.27    1133.77    1135.27    1136.77
     1138.26    1139.76    1141.27    1142.77    1144.27    1145.78    1147.28
     1148.79    1150.29    1151.80    1153.31    1154.82    1156.33    1157.84
     1159.35    1160.87    1162.38    1163.90    1165.41    1166.93    1168.45
     1169.97    1171.49    1173.01    1174.53    1176.05    1177.58    1179.10
     1180.63    1182.15    1183.68    1185.21    1186.74    1188.27    1189.80
     1191.33    1192.86    1194.40    1195.93    1197.47    1199.01    1200.54
     1202.08    1203.62    1205.16    1206.70    1208.24    1209.79    1211.33
     1212.88    1214.42    1215.97    1217.52    1219.07    1220.62    1222.17
     1223.72    1225.27    1226.83    1228.38    1229.94    1231.49    1233.05
     1234.61    1236.17    1237.73    1239.29    1240.85    1242.41    1243.98
     1245.54    1247.11    1248.67    1250.24    1251.81    1253.38    1254.95
     1256.52    1258.09    1259.67    1261.24    1262.81    1264.39    1265.97
     1267.55    1269.12    1270.70    1272.28    1273.87    1275.45    1277.03
     1278.62    1280.20    1281.79    1283.37    1284.96    1286.55    1288.14
     1289.73    1291.32    1292.92    1294.51    1296.10    1297.70    1299.30
     1300.89    1302.49    1304.09    1305.69    1307.29    1308.90    1310.50
     1312.10    1313.71    1315.31    1316.92    1318.53    1320.14    1321.74
     1323.35    1324.97    1326.58    1328.19    1329.81    1331.42    1333.04
     1334.66    1336.27    1337.89    1339.51    1341.13    1342.75    1344.38
     1346.00    1347.62    1349.25    1350.88    1352.50    1354.13    1355.76
     1357.39    1359.02    1360.65    1362.29    1363.92    1365.55    1367.19
     1368.83    1370.46    1372.10    1373.74    1375.38    1377.03    1378.67
     1380.31    1381.96    1383.60    1385.24    1386.89    1388.54    1390.19
     1391.84    1393.49    1395.14    1396.79    1398.45    1400.10    1401.76
     1403.41    1405.07    1406.73    1408.39    1410.05    1411.71    1413.37
     1415.03    1416.70    1418.36    1420.03    1421.69    1423.36    1425.03
     1426.70    1428.37    1430.04    1431.71    1433.38    1435.06    1436.73
     1438.41    1440.08    1441.76    1443.44    1445.12    1446.80    1448.48
     1450.17    1451.85    1453.53    1455.22    1456.90    1458.59    1460.28
     1461.97    1463.66    1465.35    1467.04    1468.73    1470.43    1472.12
     1473.82    1475.51    1477.21    1478.91    1480.61    1482.31    1484.01
     1485.71    1487.41    1489.12    1490.82    1492.53    1494.23    1495.94
     1497.65    1499.36    1501.07    1502.78    1504.49    1506.21    1507.92
     1509.64    1511.35    1513.07    1514.79    1516.50    1518.22    1519.94
     1521.67    1523.39    1525.11    1526.84    1528.56    1530.29    1532.02
     1533.74    1535.47    1537.20    1538.93    1540.67    1542.40    1544.13
     1545.87    1547.60    1549.34    1551.08    1552.81    1554.55    1556.29
     1558.03    1559.78    1561.52    1563.26    1565.01    1566.75    1568.50
     1570.25    1572.00    1573.75    1575.50    1577.25    1579.00    1580.75
     1582.51    1584.26    1586.02    1587.78    1589.54    1591.29    1593.05
     1594.82    1596.58    1598.34    1600.10    1601.87    1603.63    1605.40
     1607.17    1608.93    1610.70    1612.47    1614.24    1616.02    1617.79
     1619.56    1621.34    1623.11    1624.89    1626.67    1628.45    1630.23
     1632.01    1633.79    1635.57    1637.35    1639.14    1640.92    1642.71
     1644.50    1646.28    1648.07    1649.86    1651.65    1653.44    1655.24
     1657.03    1658.83    1660.62    1662.42    1664.21    1666.01    1667.81
     1669.61    1671.41    1673.21    1675.02    1676.82    1678.63    1680.43
     1682.24    1684.04    1685.85    1687.66    1689.47    1691.28    1693.10
     1694.91    1696.72    1698.54    1700.36    1702.17    1703.99    1705.81
     1707.63    1709.45    1711.27    1713.09    1714.92    1716.74    1718.57
     1720.39    1722.22    1724.05    1725.88    1727.71    1729.54    1731.37
     1733.20    1735.03    1736.87    1738.70    1740.54    1742.38    1744.22
     1746.06    1747.90    1749.74    1751.58    1753.42    1755.27    1757.11
     1758.96    1760.81    1762.65    1764.50    1766.35    1768.20    1770.05
     1771.90    1773.76    1775.61    1777.47    1779.32    1781.18    1783.04
     1784.90    1786.76    1788.62    1790.48    1792.34    1794.20    1796.07
     1797.94    1799.80    1801.67    1803.54    1805.41    1807.28    1809.15
     1811.02    1812.89    1814.77    1816.64    1818.52    1820.39    1822.27
     1824.15    1826.03    1827.91    1829.79    1831.67    1833.56    1835.44
     1837.33    1839.21    1841.10    1842.99    1844.88    1846.77    1848.66
     1850.55    1852.44    1854.33    1856.23    1858.12    1860.02    1861.92
     1863.82    1865.72    1867.61    1869.52    1871.42    1873.32    1875.22
     1877.13    1879.04    1880.94    1882.85    1884.76    1886.67    1888.58
     1890.49    1892.40    1894.31    1896.23    1898.14    1900.06    1901.98
     1903.89    1905.81    1907.73    1909.65    1911.57    1913.50    1915.42
     1917.34    1919.27    1921.20    1923.12    1925.05    1926.98    1928.91
     1930.84    1932.77    1934.71    1936.64    1938.57    1940.51    1942.45
     1944.38    1946.32    1948.26    1950.20    1952.14    1954.09    1956.03
     1957.97    1959.92    1961.86    1963.81    1965.76    1967.71    1969.66
     1971.61    1973.56    1975.51    1977.46    1979.42    1981.37    1983.33
     1985.29    1987.25    1989.20    1991.16    1993.13    1995.09    1997.05
     1999.01    2000.98    2002.94    2004.91    2006.88    2008.85    2010.82
     2012.79    2014.76    2016.73    2018.70    2020.68    2022.65    2024.63
     2026.60    2028.58    2030.56    2032.54    2034.52    2036.50    2038.48
     2040.47    2042.45    2044.44    2046.42    2048.41    2050.40    2052.39
     2054.38    2056.37    2058.36    2060.35    2062.35    2064.34    2066.34
     2068.33    2070.33    2072.33    2074.33    2076.33    2078.33    2080.33
     2082.33    2084.34    2086.34    2088.35    2090.36    2092.36    2094.37
     2096.38    2098.39    2100.40    2102.42    2104.43    2106.45    2108.46
     2110.48    2112.49    2114.51    2116.53    2118.55    2120.57    2122.59
     2124.61    2126.64    2128.66    2130.69    2132.72    2134.74    2136.77
     2138.80    2140.83    2142.86    2144.90    2146.93    2148.96    2151.00
     2153.03    2155.07    2157.10    2159.14    2161.18    2163.22    2165.27
     2167.31    2169.35    2171.40    2173.44    2175.49    2177.54    2179.58
     2181.63    2183.68    2185.73    2187.78    2189.84    2191.89    2193.94
     2196.00    2198.06    2200.11    2202.17    2204.23    2206.29    2208.35
     2210.42    2212.48    2214.54    2216.61    2218.67    2220.74    2222.81
     2224.88    2226.95    2229.02    2231.09    2233.16    2235.23    2237.31
     2239.38    2241.46    2243.54    2245.62    2247.69    2249.77    2251.85
     2253.94    2256.02    2258.10    2260.19    2262.27    2264.36    2266.45
     2268.54    2270.62    2272.72    2274.80    2276.90    2278.99    2281.09
     2283.18    2285.28    2287.37    2289.47    2291.57    2293.67    2295.77
     2297.87    2299.97    2302.08    2304.18    2306.29    2308.39    2310.50
     2312.61    2314.72    2316.83    2318.94    2321.05    2323.16    2325.28
     2327.39    2329.51    2331.62    2333.74    2335.86    2337.98    2340.10
     2342.22    2344.34    2346.47    2348.59    2350.71    2352.84    2354.97
     2357.09    2359.22    2361.35    2363.48    2365.62    2367.75    2369.88
     2372.02    2374.15    2376.29    2378.42    2380.56    2382.70    2384.84
     2386.98    2389.12    2391.27    2393.41    2395.55    2397.70    2399.85
     2401.99    2404.14    2406.29    2408.44    2410.59    2412.75    2414.90
     2417.05    2419.21    2421.37    2423.52    2425.68    2427.84    2430.00
     2432.16    2434.32    2436.48    2438.65    2440.81    2442.98    2445.14
     2447.31    2449.48    2451.65    2453.82    2455.99    2458.16    2460.33
     2462.51    2464.68    2466.86    2469.03    2471.21    2473.39    2475.57
     2477.75    2479.93    2482.11    2484.30
!IDEND=

